name =JUICE_ROI_CAL_3_0_03
flyby =  ['2033 MAY 10 08:21:32', '2033 MAY 11 08:21:32']
Observation TW =  <SpiceCell dtype = 1, length = 0, size = 2600, card = 6, is_set = 1, adjust = 0, init = 1, base = 2554795575104, data = 2554795575152>
Res(t) =  [0.67581316 0.67712472 0.67844191 0.67976464 0.68109281 0.68242632
 0.68376507 0.68510897 0.68645794 0.68781187 0.68917069 0.69053432
 0.69190266 0.69327563 0.69465317 0.69603519 0.69742161 0.69881237
 0.70020738 0.70160659 0.70300991 0.70441729 0.70582866 0.70724394
 0.70866309 0.71008604 0.71151272 0.71294307 0.71437705 0.71581459
 0.71725564 0.71870014 0.72014804 0.72159928 0.72305382 0.72451161
 0.72597259 0.72743672 0.72890394 0.73037423 0.73184752 0.73332377
 0.73480295 0.736285   0.73776989 0.73925757 0.74074801 0.74224116
 0.74373698 0.74523545 0.74673651 0.74824013 0.74974628 0.75125492
 0.75276602 0.75427954 0.75579545 0.75731372 0.75883431 0.76035719
 0.76188233 0.7634097  0.76493927 0.76647101 0.76800489 0.76954089
 0.77107897 0.7726191  0.77416127 0.77570544 0.77725158 0.77879968
 0.7803497  0.78190163 0.78345543 0.78501109 0.78656857 0.78812786
 0.78968893 0.79125176 0.79281633 0.79438262 0.7959506  0.79752026
 0.79909157 0.80066451 0.80223906 0.80381521 0.80539293 0.80697221
 0.80855302 0.81013535 0.81171918 0.81330448 0.81489125 0.81647947
 0.81806912 0.81966017 0.82125262 0.82284645 0.82444164 0.82603818
 0.82763605 0.82923523 0.83083572 0.83243749 0.83404053 0.83564482
 0.83725036 0.83885712 0.8404651  0.84207427 0.84368464 0.84529617
 0.84690887 0.84852271 0.85013768 0.85175378 0.85337098 0.85498929
 0.85660867 0.85822913 0.85985065 0.86147322 0.86309683 0.86472146
 0.86634711 0.86797377 0.86960141 0.87123004 0.87285965 0.87449021
 0.87612173 0.87775419 0.87938758 0.88102189 0.88265712 0.88429325
 0.88593027 0.88756817 0.88920696 0.8908466  0.8924871  0.89412846
 0.89577065 0.89741367 0.89905751 0.90070217 0.90234763 0.90399389
 0.90564093 0.90728876 0.90893736 0.91058673 0.91223686 0.91388773
 0.91553935 0.9171917  0.91884478 0.92049858 0.9221531  0.92380832
 0.92546424 0.92712085 0.92877815 0.93043612 0.93209477 0.93375409
 0.93541406 0.93707469 0.93873597 0.94504712 0.94670508 0.9483637
 0.95002297 0.95168288 0.95334343 0.9550046  0.9566664  0.95832882
 0.95999185 0.96165548 0.96331971 0.96498454 0.96664996 0.96831597
 0.96998255 0.9716497  0.97331742 0.9749857  0.97665454 0.97832393
 0.97999387 0.98166435 0.98333536 0.98500691 0.98667898 0.98835158
 0.99002469 0.99169832 0.99337245 0.99504708 0.99672222 0.99839785
 1.00007396 1.00175057 1.00342765 1.00510521 1.00678324 1.00846174
 1.01014071 1.01182013 1.01350001 1.01518034 1.01686111 1.01854233
 1.02022399 1.02190609 1.02358861 1.02527157 1.02695495 1.02863874
 1.03032296 1.03200759 1.03369262 1.03537807 1.03706391 1.03875016
 1.04043679 1.04212382 1.04381124 1.04549905 1.04718723 1.0488758
 1.05056473 1.05225404 1.05394372 1.05563377 1.05732417 1.05901494
 1.06070606 1.06239753 1.06408936 1.06578153 1.06747404 1.0691669
 1.07086009 1.07255362 1.07424748 1.07594167 1.07763619 1.07933103
 1.08102619 1.08272167 1.08441747 1.08611358 1.08781    1.08950673
 1.09120376 1.0929011  1.09459873 1.09629667 1.0979949  1.09969342
 1.10139223 1.10309133 1.10479071 1.10649038 1.10819033 1.10989055
 1.11159105 1.11329183 1.11499287 1.11669419 1.11839577 1.12009762
 1.12179973 1.1235021  1.12520473 1.12690761 1.12861075 1.13031413
 1.13201777 1.13372166 1.13542579 1.13713016 1.13883478 1.14053964
 1.14224473 1.14395006 1.14565562 1.14736141 1.14906744 1.15077369
 1.15248016 1.15418686 1.15589379 1.15760093 1.15930829 1.16101587
 1.16272367 1.16443167 1.16613989 1.16784832 1.16955696 1.1712658
 1.17297485 1.1746841  1.17639355 1.1781032  1.17981305 1.1815231
 1.18323334 1.18494377 1.18665439 1.18836521 1.19007621 1.1917874
 1.19349878 1.19521034 1.19692208 1.198634   1.20034611 1.20205839
 1.20377084 1.20548348 1.20719628 1.20890926 1.21062241 1.21233572
 1.21404921 1.21576286 1.21747668 1.21919066 1.2209048  1.22261911
 1.22433357 1.2260482  1.22776298 1.22947791 1.231193   1.23290825
 1.23462364 1.23633919 1.23805489 1.23977073 1.24148673 1.24320286
 1.24491915 1.24663557 1.24835214 1.25006885 1.2517857  1.25350269
 1.25521982 1.25693708 1.25865448 1.26037201 1.26208968 1.26380747
 1.2655254  1.26724346 1.26896165 1.27067996 1.27239841 1.27411697
 1.27583567 1.27755448 1.27927342 1.28099248 1.28271166 1.28443096
 1.28615037 1.28786991 1.28958956 1.29130933 1.29302921 1.2947492
 1.29646931 1.29818953 1.29990986 1.3016303  1.30335084 1.3050715
 1.30679226 1.30851313 1.3102341  1.31195518 1.31367636 1.31539764
 1.31711903 1.31884051 1.3205621  1.32228378 1.32400556 1.32572744
 1.32744941 1.32917148 1.33089365 1.33261591 1.33433826 1.3360607
 1.33778324 1.33950586 1.34122858 1.34295139 1.34467428 1.34639726
 1.34812032 1.34984348 1.35156672 1.35329004 1.35501344 1.35673693
 1.3584605  1.36018415 1.36190789 1.3636317  1.36535559 1.36707956
 1.36880361 1.37052773 1.37225193 1.37397621 1.37570056 1.37742498
 1.37914948 1.38087405 1.3825987  1.38432341 1.3860482  1.38777305
 1.38949798 1.39122297 1.39294804 1.39467317 1.39639836 1.39812363
 1.39984895 1.40157435 1.40329981 1.40502533 1.40675091 1.40847656
 1.41020227 1.41192804 1.41365387 1.41537976 1.41710571 1.41883172
 1.42055779 1.42228391 1.42401009 1.42573633 1.42746263 1.42918898
 1.43091538 1.43264184 1.43436835 1.43609492 1.43782154 1.43954821
 1.44127493 1.44300171 1.44472853 1.4464554  1.44818233 1.4499093
 1.45163632 1.45336339 1.4550905  1.45681766 1.45854487 1.46027212
 1.46199942 1.46372677 1.46545415 1.46718159 1.46890906 1.47063658
 1.47236414 1.47409174 1.47581938 1.47754707 1.47927479 1.48100256
 1.48273036 1.4844582  1.48618608 1.487914   1.48964196 1.49136995
 1.49309798 1.49482605 1.49655415 1.49828229 1.50001046 1.50173867
 1.50346691 1.50519518 1.50692349 1.50865183 1.5103802  1.51210861
 1.51383704 1.51556551 1.51729401 1.51902253 1.52075109 1.52247968
 1.52420829 1.52593694 1.52766561 1.52939431 1.53112304 1.53285179
 1.53458057 1.53630938 1.53803821 1.53976707 1.54149595 1.54322486
 1.54495379 1.54668275 1.54841172 1.55014073 1.55186975 1.5535988
 1.55532787 1.55705696 1.55878607 1.5605152  1.56224436 1.56397353
 1.56570272 1.56743194 1.56916117 1.57089042 1.57261969 1.57434898
 1.57607828 1.57780761 1.57953695 1.5812663  1.58299567 1.58472506
 1.58645447 1.58818389 1.58991332 1.59164277 1.59337224 1.59510172
 1.59683121 1.59856071 1.60029023 1.60201976 1.60374931 1.60547886
 1.60720843 1.60893801 1.6106676  1.61239721 1.61412682 1.61585644
 1.61758607 1.61931572 1.62104537 1.62277503 1.6245047  1.62623438
 1.62796407 1.62969376 1.63142347 1.63315318 1.63488289 1.63661262
 1.63834235 1.64007209 1.64180183 1.64353158 1.64526133 1.64699109
 1.64872086 1.65045062 1.6521804  1.65391018 1.65563996 1.65736974
 1.65909953 1.66082932 1.66255911 1.66428891 1.66601871 1.66774851
 1.66947831 1.67120812 1.67293792 1.67466773 1.67639753 1.67812734
 1.67985715 1.68158696 1.68331676 1.68504657 1.68677637 1.68850618
 1.69023598 1.69196578 1.69369558 1.69542538 1.69715518 1.69888497
 1.70061476 1.70234455 1.70407434 1.70580412 1.70753389 1.70926367
 1.71099344 1.7127232  1.71445296 1.71618272 1.71791247 1.71964222
 1.72137196 1.72310169 1.72483142 1.72656115 1.72829086 1.73002057
 1.73175028 1.73347997 1.73520966 1.73693934 1.73866902 1.74039869
 1.74212834 1.743858   1.74558764 1.74731727 1.7490469  1.75077651
 1.75250612 1.75423571 1.7559653  1.75769488 1.75942445 1.761154
 1.76288355 1.76461309 1.76634261 1.76807213 1.76980163 1.77153112
 1.7732606  1.77499007 1.77671953 1.77844897 1.78017841 1.78190783
 1.78363723 1.78536663 1.78709601 1.78882538 1.79055473 1.79228407
 1.7940134  1.79574271 1.79747201 1.79920129 1.80093056 1.80265982
 1.80438906 1.80611828 1.80784749 1.80957669 1.81130587 1.81303503
 1.81476418 1.81649331 1.81822242 1.81995152 1.8216806  1.82340967
 1.82513872 1.82686775 1.82859676 1.83032576 1.83205474 1.8337837
 1.83551264 1.83724157 1.83897047 1.84069936 1.84242823 1.84415708
 1.84588592 1.84761473 1.84934352 1.8510723  1.85280105 1.85452979
 1.85625851 1.8579872  1.85971588 1.86144453 1.86317317 1.86490178
 1.86663038 1.86835895 1.8700875  1.87181603 1.87354454 1.87527303
 1.8770015  1.87872994 1.88045836 1.88218676 1.88391514 1.8856435
 1.88737183 1.88910014 1.89082843 1.8925567  1.89428494 1.89601316
 1.89774136 1.89946953 1.90119768 1.9029258  1.9046539  1.90638198
 1.90811003 1.90983806 1.91156607 1.91329405 1.915022   1.91674993
 1.91847784 1.92020572 1.92193358 1.92366141 1.92538921 1.92711699
 1.92884474 1.93057247 1.93230017 1.93402785 1.9357555  1.93748312
 1.93921072 1.94093829 1.94266583 1.94439335 1.94612084 1.9478483
 1.94957573 1.95130314 1.95303052 1.95475788 1.9564852  1.9582125
 1.95993977 1.96166701 1.96339422 1.96512141 1.96684856 1.96857569
 1.97030279 1.97202986 1.9737569  1.97548392 1.9772109  1.97893785
 1.98066478 1.98239168 1.98411854 1.98584538 1.98757218 1.98929896
 1.99102571 1.99275242 1.99447911 1.99620577 1.99793239 1.99965899
 2.00138555 2.00311209 2.00483859 2.00656506 2.0082915  2.01001791
 2.01174429 2.01347064 2.01519695 2.01692324 2.01864949 2.02037571
 2.0221019  2.02382805 2.02555418 2.02728027 2.02900633 2.03073236
 2.03245835 2.03418431 2.03591024 2.03763614 2.039362   2.04108783
 2.04281363 2.0445394  2.04626513 2.04799082 2.04971649 2.05144212
 2.05316771 2.05489328 2.05661881 2.0583443  2.06006976 2.06179519
 2.06352058 2.06524594 2.06697126 2.06869655 2.0704218  2.07214702
 2.07387221 2.07559736 2.07732247 2.07904755 2.08077259 2.0824976
 2.08422258 2.08594751 2.08767242 2.08939728 2.09112211 2.09284691
 2.09457167 2.09629639 2.09802108 2.09974573 2.10147034 2.10319492
 2.10491946 2.10664397 2.10836844 2.11009287 2.11181726 2.11354162
 2.11526594 2.11699023 2.11871447 2.12043868 2.12216286 2.12388699
 2.12561109 2.12733515 2.12905917 2.13078316 2.1325071  2.13423101
 2.13595488 2.13767872 2.13940251 2.14112627 2.14284999 2.14457367
 2.14629731 2.14802091 2.14974447 2.151468   2.15319149 2.15491494
 2.15663834 2.15836171 2.16008505 2.16180834 2.16353159 2.1652548
 2.16697798 2.16870111 2.17042421 2.17214726 2.17387028 2.17559326
 2.17731619 2.17903909 2.18076195 2.18248476 2.18420754 2.18593027
 2.18765297 2.18937563 2.19109824 2.19282082 2.19454335 2.19626584
 2.1979883  2.19971071 2.20143308 2.20315541 2.2048777  2.20659995
 2.20832215 2.21004432 2.21176644 2.21348853 2.21521057 2.21693257
 2.21865453 2.22037644 2.22209832 2.22382015 2.22554195 2.2272637
 2.2289854  2.23070707 2.23242869 2.23415028 2.23587182 2.23759331
 2.23931477 2.24103618 2.24275755 2.24447888 2.24620016 2.24792141
 2.24964261 2.25136376 2.25308488 2.25480595 2.25652698 2.25824796
 2.2599689  2.2616898  2.26341066 2.26513147 2.26685224 2.26857296
 2.27029364 2.27201428 2.27373488 2.27545543 2.27717593 2.2788964
 2.28061682 2.28233719 2.28405752 2.28577781 2.28749805 2.28921825
 2.29093841 2.29265852 2.29437859 2.29609861 2.29781858 2.29953852
 2.30125841 2.30297825 2.30469805 2.3064178  2.30813751 2.30985718
 2.3115768  2.31329637 2.3150159  2.31673538 2.31845482 2.32017422
 2.32189357 2.32361287 2.32533213 2.32705134 2.32877051 2.33048963
 2.3322087  2.33392773 2.33564672 2.33736566 2.33908455 2.3408034
 2.3425222  2.34424095 2.34595966 2.34767832 2.34939694 2.35111551
 2.35283403 2.35455251 2.35627094 2.35798933 2.35970767 2.36142596
 2.3631442  2.3648624  2.36658055 2.36829866]
t =  [1.05264574e+09 1.05264576e+09 1.05264577e+09 1.05264579e+09
 1.05264580e+09 1.05264582e+09 1.05264584e+09 1.05264585e+09
 1.05264587e+09 1.05264588e+09 1.05264590e+09 1.05264591e+09
 1.05264593e+09 1.05264595e+09 1.05264596e+09 1.05264598e+09
 1.05264599e+09 1.05264601e+09 1.05264602e+09 1.05264604e+09
 1.05264606e+09 1.05264607e+09 1.05264609e+09 1.05264610e+09
 1.05264612e+09 1.05264613e+09 1.05264615e+09 1.05264617e+09
 1.05264618e+09 1.05264620e+09 1.05264621e+09 1.05264623e+09
 1.05264624e+09 1.05264626e+09 1.05264628e+09 1.05264629e+09
 1.05264631e+09 1.05264632e+09 1.05264634e+09 1.05264635e+09
 1.05264637e+09 1.05264639e+09 1.05264640e+09 1.05264642e+09
 1.05264643e+09 1.05264645e+09 1.05264647e+09 1.05264648e+09
 1.05264650e+09 1.05264651e+09 1.05264653e+09 1.05264654e+09
 1.05264656e+09 1.05264658e+09 1.05264659e+09 1.05264661e+09
 1.05264662e+09 1.05264664e+09 1.05264665e+09 1.05264667e+09
 1.05264669e+09 1.05264670e+09 1.05264672e+09 1.05264673e+09
 1.05264675e+09 1.05264676e+09 1.05264678e+09 1.05264680e+09
 1.05264681e+09 1.05264683e+09 1.05264684e+09 1.05264686e+09
 1.05264687e+09 1.05264689e+09 1.05264691e+09 1.05264692e+09
 1.05264694e+09 1.05264695e+09 1.05264697e+09 1.05264698e+09
 1.05264700e+09 1.05264702e+09 1.05264703e+09 1.05264705e+09
 1.05264706e+09 1.05264708e+09 1.05264709e+09 1.05264711e+09
 1.05264713e+09 1.05264714e+09 1.05264716e+09 1.05264717e+09
 1.05264719e+09 1.05264720e+09 1.05264722e+09 1.05264724e+09
 1.05264725e+09 1.05264727e+09 1.05264728e+09 1.05264730e+09
 1.05264731e+09 1.05264733e+09 1.05264735e+09 1.05264736e+09
 1.05264738e+09 1.05264739e+09 1.05264741e+09 1.05264742e+09
 1.05264744e+09 1.05264746e+09 1.05264747e+09 1.05264749e+09
 1.05264750e+09 1.05264752e+09 1.05264754e+09 1.05264755e+09
 1.05264757e+09 1.05264758e+09 1.05264760e+09 1.05264761e+09
 1.05264763e+09 1.05264765e+09 1.05264766e+09 1.05264768e+09
 1.05264769e+09 1.05264771e+09 1.05264772e+09 1.05264774e+09
 1.05264776e+09 1.05264777e+09 1.05264779e+09 1.05264780e+09
 1.05264782e+09 1.05264783e+09 1.05264785e+09 1.05264787e+09
 1.05264788e+09 1.05264790e+09 1.05264791e+09 1.05264793e+09
 1.05264794e+09 1.05264796e+09 1.05264798e+09 1.05264799e+09
 1.05264801e+09 1.05264802e+09 1.05264804e+09 1.05264805e+09
 1.05264807e+09 1.05264809e+09 1.05264810e+09 1.05264812e+09
 1.05264813e+09 1.05264815e+09 1.05264816e+09 1.05264818e+09
 1.05264820e+09 1.05264821e+09 1.05264823e+09 1.05264824e+09
 1.05264826e+09 1.05264827e+09 1.05264829e+09 1.05264831e+09
 1.05264832e+09 1.05264834e+09 1.05264835e+09 1.05264837e+09
 1.05264838e+09 1.05264840e+09 1.05264842e+09 1.05264843e+09
 1.05264845e+09 1.05264846e+09 1.05264848e+09 1.05264849e+09
 1.05264851e+09 1.05264853e+09 1.05264854e+09 1.05264856e+09
 1.05264857e+09 1.05264859e+09 1.05264861e+09 1.05264862e+09
 1.05264864e+09 1.05264865e+09 1.05264867e+09 1.05264868e+09
 1.05264870e+09 1.05264872e+09 1.05264873e+09 1.05264875e+09
 1.05264876e+09 1.05264878e+09 1.05264879e+09 1.05264881e+09
 1.05264883e+09 1.05264884e+09 1.05264886e+09 1.05264887e+09
 1.05264889e+09 1.05264890e+09 1.05264892e+09 1.05264894e+09
 1.05264895e+09 1.05264897e+09 1.05264898e+09 1.05264900e+09
 1.05264901e+09 1.05264903e+09 1.05264905e+09 1.05264906e+09
 1.05264908e+09 1.05264909e+09 1.05264911e+09 1.05264912e+09
 1.05264914e+09 1.05264916e+09 1.05264917e+09 1.05264919e+09
 1.05264920e+09 1.05264922e+09 1.05264923e+09 1.05264925e+09
 1.05264927e+09 1.05264928e+09 1.05264930e+09 1.05264931e+09
 1.05264933e+09 1.05264934e+09 1.05264936e+09 1.05264938e+09
 1.05264939e+09 1.05264941e+09 1.05264942e+09 1.05264944e+09
 1.05264945e+09 1.05264947e+09 1.05264949e+09 1.05264950e+09
 1.05264952e+09 1.05264953e+09 1.05264955e+09 1.05264956e+09
 1.05264958e+09 1.05264960e+09 1.05264961e+09 1.05264963e+09
 1.05264964e+09 1.05264966e+09 1.05264968e+09 1.05264969e+09
 1.05264971e+09 1.05264972e+09 1.05264974e+09 1.05264975e+09
 1.05264977e+09 1.05264979e+09 1.05264980e+09 1.05264982e+09
 1.05264983e+09 1.05264985e+09 1.05264986e+09 1.05264988e+09
 1.05264990e+09 1.05264991e+09 1.05264993e+09 1.05264994e+09
 1.05264996e+09 1.05264997e+09 1.05264999e+09 1.05265001e+09
 1.05265002e+09 1.05265004e+09 1.05265005e+09 1.05265007e+09
 1.05265008e+09 1.05265010e+09 1.05265012e+09 1.05265013e+09
 1.05265015e+09 1.05265016e+09 1.05265018e+09 1.05265019e+09
 1.05265021e+09 1.05265023e+09 1.05265024e+09 1.05265026e+09
 1.05265027e+09 1.05265029e+09 1.05265030e+09 1.05265032e+09
 1.05265034e+09 1.05265035e+09 1.05265037e+09 1.05265038e+09
 1.05265040e+09 1.05265041e+09 1.05265043e+09 1.05265045e+09
 1.05265046e+09 1.05265048e+09 1.05265049e+09 1.05265051e+09
 1.05265052e+09 1.05265054e+09 1.05265056e+09 1.05265057e+09
 1.05265059e+09 1.05265060e+09 1.05265062e+09 1.05265063e+09
 1.05265065e+09 1.05265067e+09 1.05265068e+09 1.05265070e+09
 1.05265071e+09 1.05265073e+09 1.05265075e+09 1.05265076e+09
 1.05265078e+09 1.05265079e+09 1.05265081e+09 1.05265082e+09
 1.05265084e+09 1.05265086e+09 1.05265087e+09 1.05265089e+09
 1.05265090e+09 1.05265092e+09 1.05265093e+09 1.05265095e+09
 1.05265097e+09 1.05265098e+09 1.05265100e+09 1.05265101e+09
 1.05265103e+09 1.05265104e+09 1.05265106e+09 1.05265108e+09
 1.05265109e+09 1.05265111e+09 1.05265112e+09 1.05265114e+09
 1.05265115e+09 1.05265117e+09 1.05265119e+09 1.05265120e+09
 1.05265122e+09 1.05265123e+09 1.05265125e+09 1.05265126e+09
 1.05265128e+09 1.05265130e+09 1.05265131e+09 1.05265133e+09
 1.05265134e+09 1.05265136e+09 1.05265137e+09 1.05265139e+09
 1.05265141e+09 1.05265142e+09 1.05265144e+09 1.05265145e+09
 1.05265147e+09 1.05265148e+09 1.05265150e+09 1.05265152e+09
 1.05265153e+09 1.05265155e+09 1.05265156e+09 1.05265158e+09
 1.05265159e+09 1.05265161e+09 1.05265163e+09 1.05265164e+09
 1.05265166e+09 1.05265167e+09 1.05265169e+09 1.05265171e+09
 1.05265172e+09 1.05265174e+09 1.05265175e+09 1.05265177e+09
 1.05265178e+09 1.05265180e+09 1.05265182e+09 1.05265183e+09
 1.05265185e+09 1.05265186e+09 1.05265188e+09 1.05265189e+09
 1.05265191e+09 1.05265193e+09 1.05265194e+09 1.05265196e+09
 1.05265197e+09 1.05265199e+09 1.05265200e+09 1.05265202e+09
 1.05265204e+09 1.05265205e+09 1.05265207e+09 1.05265208e+09
 1.05265210e+09 1.05265211e+09 1.05265213e+09 1.05265215e+09
 1.05265216e+09 1.05265218e+09 1.05265219e+09 1.05265221e+09
 1.05265222e+09 1.05265224e+09 1.05265226e+09 1.05265227e+09
 1.05265229e+09 1.05265230e+09 1.05265232e+09 1.05265233e+09
 1.05265235e+09 1.05265237e+09 1.05265238e+09 1.05265240e+09
 1.05265241e+09 1.05265243e+09 1.05265244e+09 1.05265246e+09
 1.05265248e+09 1.05265249e+09 1.05265251e+09 1.05265252e+09
 1.05265254e+09 1.05265255e+09 1.05265257e+09 1.05265259e+09
 1.05265260e+09 1.05265262e+09 1.05265263e+09 1.05265265e+09
 1.05265266e+09 1.05265268e+09 1.05265270e+09 1.05265271e+09
 1.05265273e+09 1.05265274e+09 1.05265276e+09 1.05265278e+09
 1.05265279e+09 1.05265281e+09 1.05265282e+09 1.05265284e+09
 1.05265285e+09 1.05265287e+09 1.05265289e+09 1.05265290e+09
 1.05265292e+09 1.05265293e+09 1.05265295e+09 1.05265296e+09
 1.05265298e+09 1.05265300e+09 1.05265301e+09 1.05265303e+09
 1.05265304e+09 1.05265306e+09 1.05265307e+09 1.05265309e+09
 1.05265311e+09 1.05265312e+09 1.05265314e+09 1.05265315e+09
 1.05265317e+09 1.05265318e+09 1.05265320e+09 1.05265322e+09
 1.05265323e+09 1.05265325e+09 1.05265326e+09 1.05265328e+09
 1.05265329e+09 1.05265331e+09 1.05265333e+09 1.05265334e+09
 1.05265336e+09 1.05265337e+09 1.05265339e+09 1.05265340e+09
 1.05265342e+09 1.05265344e+09 1.05265345e+09 1.05265347e+09
 1.05265348e+09 1.05265350e+09 1.05265351e+09 1.05265353e+09
 1.05265355e+09 1.05265356e+09 1.05265358e+09 1.05265359e+09
 1.05265361e+09 1.05265362e+09 1.05265364e+09 1.05265366e+09
 1.05265367e+09 1.05265369e+09 1.05265370e+09 1.05265372e+09
 1.05265373e+09 1.05265375e+09 1.05265377e+09 1.05265378e+09
 1.05265380e+09 1.05265381e+09 1.05265383e+09 1.05265385e+09
 1.05265386e+09 1.05265388e+09 1.05265389e+09 1.05265391e+09
 1.05265392e+09 1.05265394e+09 1.05265396e+09 1.05265397e+09
 1.05265399e+09 1.05265400e+09 1.05265402e+09 1.05265403e+09
 1.05265405e+09 1.05265407e+09 1.05265408e+09 1.05265410e+09
 1.05265411e+09 1.05265413e+09 1.05265414e+09 1.05265416e+09
 1.05265418e+09 1.05265419e+09 1.05265421e+09 1.05265422e+09
 1.05265424e+09 1.05265425e+09 1.05265427e+09 1.05265429e+09
 1.05265430e+09 1.05265432e+09 1.05265433e+09 1.05265435e+09
 1.05265436e+09 1.05265438e+09 1.05265440e+09 1.05265441e+09
 1.05265443e+09 1.05265444e+09 1.05265446e+09 1.05265447e+09
 1.05265449e+09 1.05265451e+09 1.05265452e+09 1.05265454e+09
 1.05265455e+09 1.05265457e+09 1.05265458e+09 1.05265460e+09
