name =JUICE_ROI_CAL_6_1_06
flyby =  ['2032 OCT 30 14:21:22', '2032 OCT 31 14:21:22']
Observation TW =  <SpiceCell dtype = 1, length = 0, size = 3000, card = 10, is_set = 1, adjust = 0, init = 1, base = 2554805440560, data = 2554805440608>
Res(t) =  [0.93467911 0.93946724 0.94426008 0.94905746 0.95385921 0.95866517
 0.9634752  0.96828913 0.97310684 0.97792817 0.98275299 0.98758118
 0.99241262 0.99724717 1.00208473 1.00692517 1.0117684  1.0166143
 1.02146277 1.02631371 1.03116703 1.03602264 1.04088043 1.04574033
 1.05060225 1.05546611 1.06692792 1.07177187 1.07661786 1.0814658
 1.08631564 1.09116727 1.09602064 1.10087567 1.10573229 1.11059043
 1.11545003 1.12031102 1.12517335 1.13003694 1.13490174 1.1397677
 1.14463476 1.14950286 1.15437195 1.15924198 1.1641129  1.16898467
 1.17385723 1.17873054 1.18360455 1.18847922 1.19335451 1.19823037
 1.20310678 1.20798367 1.21286103 1.21773881 1.22261697 1.22749548
 1.2323743  1.23725341 1.24213276 1.24701232 1.25189207 1.25677198
 1.26165201 1.26653213 1.27141232 1.27629254 1.28117278 1.286053
 1.29093318 1.29581329 1.30069331 1.30557322 1.31045299 1.31533259
 1.32021201 1.32509123 1.32997022 1.33484895 1.33972742 1.3446056
 1.34948348 1.35436102 1.35923822 1.36411505 1.3689915  1.37386755
 1.37874318 1.38361838 1.38849313 1.39336741 1.39824121 1.40311451
 1.4079873  1.41285956 1.41773129 1.42260245 1.42747305 1.43234306
 1.43721248 1.44208129 1.44694948 1.45181704 1.45668395 1.4615502
 1.46641578 1.47128069 1.4761449  1.48100841 1.4858712  1.49073328
 1.49559461 1.50045521 1.50531505 1.51017413 1.51503244 1.51988996
 1.52474669 1.52960263 1.53445775 1.53931206 1.54416555 1.5490182
 1.55387001 1.55872097 1.56357108 1.56842032 1.57326869 1.57811618
 1.58296279 1.5878085  1.59265331 1.59749722 1.60234021 1.60718229
 1.61202344 1.61686366 1.62170294 1.62654128 1.63137868 1.63621511
 1.64105059 1.6458851  1.65071864 1.6555512  1.66038279 1.66521338
 1.67004299 1.6748716  1.67969921 1.68452581 1.68935141 1.69417599
 1.69899955 1.70382209 1.7086436  1.71346408 1.71828353 1.72310194
 1.72791931 1.73273562 1.73755089 1.74236511 1.74717827 1.75199036
 1.7568014  1.76161136 1.76642026 1.77122808 1.77603482 1.78084048
 1.78564506 1.79044856 1.79525096 1.80005228 1.80485249 1.80965162
 1.81444964 1.81924656 1.82404237 1.82883708 1.83363067 1.83842316
 1.84321453 1.84800478 1.85279391 1.85758193 1.86236881 1.86715458
 1.87193921 1.87672272 1.88150509 1.88628633 1.89106644 1.89584541
 1.90062324 1.90539993 1.91017547 1.91494988 1.91972313 1.92449524
 1.9292662  1.93403602 1.93880467 1.94357218 1.94833853 1.95310373
 1.95786777 1.96263064 1.96739236 1.97215292 1.97691232 1.98167055
 1.98642762 1.99118352 1.99593826 2.00069183 2.00544423 2.01019545
 2.01494551 2.0196944  2.02444211 2.02918865 2.03393402 2.03867821
 2.04342122 2.04816306 2.05290372 2.0576432  2.0623815  2.06711862
 2.07185456 2.07658932 2.0813229  2.0860553  2.09078651 2.09551654
 2.10024538 2.10497304 2.10969952 2.11442481 2.11914891 2.12387183
 2.12859356 2.1333141  2.13803345 2.14275162 2.1474686  2.15218439
 2.15689899 2.1616124  2.16632462 2.17103565 2.17574549 2.18045414
 2.1851616  2.18986787 2.19457295 2.19927683 2.20397953 2.20868103
 2.21338134 2.21808046 2.22277839 2.22747512 2.23217067 2.23686502
 2.24155818 2.24625015 2.25094092 2.2556305  2.26031889 2.26500609
 2.2696921  2.27437691 2.27906053 2.28374296 2.2884242  2.29310425
 2.2977831  2.30246076 2.30713723 2.31181251 2.3164866  2.3211595
 2.3258312  2.33050172 2.33517104 2.33983918 2.34450612 2.34917188
 2.35383644 2.35849981 2.363162   2.36782299 2.3724828  2.37714142
 2.38179885 2.38645509 2.39111014 2.39576401 2.40041669 2.40506818
 2.40971849 2.41436761 2.41901554 2.42366229 2.42830785 2.43295223
 2.43759542 2.44223743 2.44687826 2.4515179  2.45615636 2.46079363
 2.46542973 2.47006464 2.47469837 2.47933092 2.48396229 2.48859248
 2.49322149 2.49784932 2.50247597 2.50710145 2.51172574 2.51634886
 2.5209708  2.52559157 2.53021115 2.53482957 2.53944681 2.54406287
 2.54867776 2.55329148 2.55790402 2.56251539 2.56712559 2.57173462
 2.57634248 2.58094917 2.58555468 2.59015903 2.59476221 2.59936422
 2.60396507 2.60856475 2.61316326 2.6177606  2.62235678 2.6269518
 2.63154565 2.63613834 2.64072986 2.64532022 2.64990942 2.65449746
 2.65908434 2.66367006 2.66825462 2.67283802 2.67742027 2.68200135
 2.68658128 2.69116006 2.69573767 2.70031414 2.70488945 2.7094636
 2.7140366  2.71860845 2.72317915 2.7277487  2.7323171  2.73688434
 2.74145044 2.74601539 2.75057919 2.75514185 2.75970336 2.76426372
 2.76882294 2.77338102 2.77793795 2.78249374 2.78704838 2.79160189
 2.79615425 2.80070547 2.80525556 2.8098045  2.81435231 2.81889898
 2.82344451 2.82798891 2.83253217 2.8370743  2.8416153  2.84615516
 2.85069388 2.85523148 2.85976795 2.86430328 2.86883749 2.87337057
 2.87790252 2.88243334 2.88696304 2.89149161 2.89601905 2.90054537
 2.90507057 2.90959465 2.9141176  2.91863943 2.92316014 2.92767973
 2.9321982  2.93671556 2.94123179 2.94574691 2.95026091 2.9547738
 2.95928557 2.96379623 2.96830578 2.97281421 2.97732153 2.98182775
 2.98633285 2.99083684 2.99533972 2.9998415  3.00434217 3.00884173
 3.01334019 3.01783754 3.02233379 3.02682893 3.03132297 3.03581592
 3.04030776 3.0447985  3.04928814 3.05377668 3.05826413 3.06275047
 3.06723573 3.07171988 3.07620294 3.08068491 3.08516579 3.08964557
 3.09412426 3.09860186 3.10307837 3.1075538  3.11202813 3.11650138
 3.12097354 3.12544461 3.1299146  3.1343835  3.13885132 3.14331806
 3.14778372 3.15224829 3.15671179 3.1611742  3.16563554 3.17009579
 3.17455497 3.17901308 3.18347011 3.18792606 3.19238094 3.19683475
 3.20128748 3.20573914 3.21018973 3.21463926 3.21908771 3.22353509
 3.22798141 3.23242666 3.23687084 3.24131396 3.24575601 3.250197
 3.25463693 3.25907579 3.2635136  3.26795034 3.27238602 3.27682065
 3.28125422 3.28568673 3.29011818 3.29454858 3.29897792 3.30340621
 3.30783344 3.31225963 3.31668476 3.32110884 3.32553187 3.32995385
 3.33437478 3.33879467 3.34321351 3.3476313  3.35204805 3.35646375
 3.36087841 3.36529202 3.3697046  3.37411613 3.37852663 3.38293608
 3.38734449 3.39175187 3.39615821 3.40056351 3.40496778 3.40937101
 3.41377321 3.41817438 3.42257451 3.42697361 3.43137168 3.43576873
 3.44016474 3.44455972 3.44895368 3.45334661 3.45773851 3.46212939
 3.46651924 3.47090807 3.47529588 3.47968267 3.48406843 3.48845318
 3.4928369  3.49721961 3.5016013  3.50598197 3.51036163 3.51474027
 3.51911789 3.5234945  3.5278701  3.53224469 3.53661826 3.54099082
 3.54536238 3.54973292 3.55410246 3.55847099 3.56283851 3.56720503
 3.57157054 3.57593504 3.58029855 3.58466105 3.58902255 3.59338304
 3.59774254 3.60210104 3.60645854 3.61081504 3.61517054 3.61952505
 3.62387856 3.62823108 3.6325826  3.63693313 3.64128267 3.64563122
 3.64997877 3.65432534 3.65867092 3.6630155  3.6673591  3.67170172
 3.67604335 3.68038399 3.68472364 3.68906232 3.69340001 3.69773672
 3.70207245 3.70640719 3.71074096 3.71507375 3.71940556 3.72373639
 3.72806625 3.73239513 3.73672303 3.74104997 3.74537592 3.74970091
 3.75402492 3.75834796 3.76267004 3.76699114 3.77131127 3.77563044
 3.77994864 3.78426587 3.78858213 3.79289744 3.79721177 3.80152515
 3.80583756 3.81014901 3.8144595  3.81876903 3.8230776  3.82738521
 3.83169186 3.83599755 3.84030229 3.84460608 3.84890891 3.85321078
 3.8575117  3.86181167 3.86611069 3.87040876 3.87470588 3.87900204
 3.88329726 3.88759153 3.89188486 3.89617723 3.90046867 3.90475915
 3.9090487  3.9133373  3.91762496 3.92191167 3.92619745 3.93048228
 3.93476618 3.93904914 3.94333116 3.94761224 3.95189238 3.95617159
 3.96044987 3.96472721 3.96900362 3.9732791  3.97755364 3.98182725
 3.98609994 3.99037169 3.99464251 3.99891241 4.00318138 4.00744942
 4.01171654 4.01598273 4.020248   4.02451234 4.02877577 4.03303827
 4.03729985 4.0415605  4.04582024 4.05007906 4.05433696 4.05859395
 4.06285002 4.06710517 4.0713594  4.07561273 4.07986513 4.08411663
 4.08836721 4.09261688 4.09686564 4.10111349 4.10536044 4.10960647
 4.11385159 4.11809581 4.12233913 4.12658153 4.13082303 4.13506363
 4.13930333 4.14354212 4.14778001 4.152017   4.15625309 4.16048827
 4.16472256 4.16895596 4.17318845 4.17742005 4.18165075 4.18588056
 4.19010947 4.19433749 4.19856461 4.20279085 4.20701619 4.21124064
 4.2154642  4.21968687 4.22390866 4.22812955 4.23234956 4.23656868
 4.24078692 4.24500427 4.24922073 4.25343632 4.25765102 4.26186483
 4.26607777 4.27028983 4.274501   4.2787113  4.28292072 4.28712926
 4.29133692 4.29554371 4.29974962 4.30395465 4.30815882 4.31236211
 4.31656452 4.32076607 4.32496674 4.32916654 4.33336547 4.33756353
 4.34176073 4.34595706 4.35015252 4.35434711 4.35854084 4.3627337
 4.3669257  4.37111683 4.3753071  4.37949651 4.38368506 4.38787275
 4.39205958 4.39624555 4.40043066 4.40461491 4.4087983  4.41298084
 4.41716253 4.42134335 4.42552333 4.42970245 4.43388071 4.43805813
 4.44223469 4.4464104  4.45058526 4.45475928 4.45893244 4.46310476
 4.46727622 4.47144685 4.47561662 4.47978555 4.48395364 4.48812088
 4.49228728 4.49645283 4.50061754 4.50478142 4.50894445 4.51310664
 4.51726799 4.52142851 4.52558819 4.52974703 4.53390503 4.5380622
 4.54221853 4.54637403 4.55052869 4.55468253 4.55883553 4.56298769
 4.56713903 4.57128954 4.57543921 4.57958806 4.58373608 4.58788328
 4.59202964 4.59617518 4.6003199  4.60446379 4.60860685 4.61274909
 4.61689051 4.62103111 4.62517088 4.62930984 4.63344797 4.63758529
 4.64172179 4.64585746 4.64999232 4.65412637 4.6582596  4.66239201
 4.66652361 4.67065439 4.67478436 4.67891352 4.68304187 4.6871694
 4.69129612 4.69542204 4.69954714 4.70367144 4.70779492 4.7119176
 4.71603947 4.72016054 4.7242808  4.72840026 4.73251891 4.73663676
 4.7407538  4.74487005 4.74898549 4.75310013 4.75721397 4.76132701
 4.76543926 4.7695507  4.77366135 4.7777712  4.78188025 4.78598851
 4.79009597 4.79420264 4.79830851 4.80241359 4.80651788 4.81062138
 4.81472408 4.818826   4.82292712 4.82702746 4.83112701 4.83522577
 4.83932374 4.84342093 4.84751733 4.85161294 4.85570777 4.85980182
 4.86389508 4.86798756 4.87207926 4.87617017 4.88026031 4.88434966
 4.88843823 4.89252603 4.89661305 4.90069929 4.90478475 4.90886944
 4.91295335 4.91703648 4.92111884 4.92520043 4.92928124 4.93336128
 4.93744055 4.94151905 4.94559678 4.94967373 4.95374992 4.95782534
 4.96189999 4.96597387 4.97004698 4.97411933 4.97819091 4.98226173
 4.98633178 4.99040107 4.9944696  4.99853736 5.00260436 5.0066706
 5.01073608 5.0148008  5.01886476 5.02292796 5.0269904  5.03105208
 5.03511301 5.03917318 5.04323259 5.04729125 5.05134916 5.05540631
 5.0594627  5.06351835 5.06757324 5.07162738 5.07568077 5.07973341
 5.0837853  5.08783644 5.09188683 5.09593647 5.09998537 5.10403351
 5.10808092 5.11212757 5.11617349 5.12021865 5.12426308 5.12830676
 5.1323497  5.13639189 5.14043335 5.14447406 5.14851404 5.15255327
 5.15659177 5.16062953 5.16466655 5.16870283 5.17273838 5.17677319
 5.18080726 5.1848406  5.18887321 5.19290508 5.19693622 5.20096662
 5.2049963  5.20902524 5.21305346 5.21708094 5.22110769 5.22513372
 5.22915902 5.23318358 5.23720743 5.24123054 5.24525293 5.2492746
 5.25329554 5.25731575 5.26133524 5.26535401 5.26937206 5.27338938
 5.27740599 5.28142187 5.28543703 5.28945147 5.2934652  5.2974782
 5.30149049 5.30550206 5.30951292 5.31352306 5.31753248 5.32154119
 5.32554918 5.32955646 5.33356303 5.33756888 5.34157402 5.34557845
 5.34958217 5.35358518 5.35758748 5.36158908 5.36558996 5.36959013
 5.3735896  5.37758836 5.38158641 5.38558376]
t =  [1.03607661e+09 1.03607665e+09 1.03607669e+09 1.03607673e+09
 1.03607677e+09 1.03607682e+09 1.03607686e+09 1.03607690e+09
 1.03607694e+09 1.03607698e+09 1.03607702e+09 1.03607706e+09
 1.03607710e+09 1.03607714e+09 1.03607718e+09 1.03607722e+09
 1.03607726e+09 1.03607730e+09 1.03607735e+09 1.03607739e+09
 1.03607743e+09 1.03607747e+09 1.03607751e+09 1.03607755e+09
 1.03607759e+09 1.03607763e+09 1.03607767e+09 1.03607771e+09
 1.03607775e+09 1.03607779e+09 1.03607783e+09 1.03607788e+09
 1.03607792e+09 1.03607796e+09 1.03607800e+09 1.03607804e+09
 1.03607808e+09 1.03607812e+09 1.03607816e+09 1.03607820e+09
 1.03607824e+09 1.03607828e+09 1.03607832e+09 1.03607836e+09
 1.03607841e+09 1.03607845e+09 1.03607849e+09 1.03607853e+09
 1.03607857e+09 1.03607861e+09 1.03607865e+09 1.03607869e+09
 1.03607873e+09 1.03607877e+09 1.03607881e+09 1.03607885e+09
 1.03607889e+09 1.03607894e+09 1.03607898e+09 1.03607902e+09
 1.03607906e+09 1.03607910e+09 1.03607914e+09 1.03607918e+09
 1.03607922e+09 1.03607926e+09 1.03607930e+09 1.03607934e+09
 1.03607938e+09 1.03607943e+09 1.03607947e+09 1.03607951e+09
 1.03607955e+09 1.03607959e+09 1.03607963e+09 1.03607967e+09
 1.03607971e+09 1.03607975e+09 1.03607979e+09 1.03607983e+09
 1.03607987e+09 1.03607991e+09 1.03607996e+09 1.03608000e+09
 1.03608004e+09 1.03608008e+09 1.03608012e+09 1.03608016e+09
 1.03608020e+09 1.03608024e+09 1.03608028e+09 1.03608032e+09
 1.03608036e+09 1.03608040e+09 1.03608044e+09 1.03608049e+09
 1.03608053e+09 1.03608057e+09 1.03608061e+09 1.03608065e+09
 1.03608069e+09 1.03608073e+09 1.03608077e+09 1.03608081e+09
 1.03608085e+09 1.03608089e+09 1.03608093e+09 1.03608097e+09
 1.03608102e+09 1.03608106e+09 1.03608110e+09 1.03608114e+09
 1.03608118e+09 1.03608122e+09 1.03608126e+09 1.03608130e+09
 1.03608134e+09 1.03608138e+09 1.03608142e+09 1.03608146e+09
 1.03608150e+09 1.03608155e+09 1.03608159e+09 1.03608163e+09
 1.03608167e+09 1.03608171e+09 1.03608175e+09 1.03608179e+09
 1.03608183e+09 1.03608187e+09 1.03608191e+09 1.03608195e+09
 1.03608199e+09 1.03608204e+09 1.03608208e+09 1.03608212e+09
 1.03608216e+09 1.03608220e+09 1.03608224e+09 1.03608228e+09
 1.03608232e+09 1.03608236e+09 1.03608240e+09 1.03608244e+09
 1.03608248e+09 1.03608252e+09 1.03608257e+09 1.03608261e+09
 1.03608265e+09 1.03608269e+09 1.03608273e+09 1.03608277e+09
 1.03608281e+09 1.03608285e+09 1.03608289e+09 1.03608293e+09
 1.03608297e+09 1.03608301e+09 1.03608305e+09 1.03608310e+09
 1.03608314e+09 1.03608318e+09 1.03608322e+09 1.03608326e+09
 1.03608330e+09 1.03608334e+09 1.03608338e+09 1.03608342e+09
 1.03608346e+09 1.03608350e+09 1.03608354e+09 1.03608358e+09
 1.03608363e+09 1.03608367e+09 1.03608371e+09 1.03608375e+09
 1.03608379e+09 1.03608383e+09 1.03608387e+09 1.03608391e+09
 1.03608395e+09 1.03608399e+09 1.03608403e+09 1.03608407e+09
 1.03608411e+09 1.03608416e+09 1.03608420e+09 1.03608424e+09
 1.03608428e+09 1.03608432e+09 1.03608436e+09 1.03608440e+09
 1.03608444e+09 1.03608448e+09 1.03608452e+09 1.03608456e+09
 1.03608460e+09 1.03608464e+09 1.03608469e+09 1.03608473e+09
 1.03608477e+09 1.03608481e+09 1.03608485e+09 1.03608489e+09
 1.03608493e+09 1.03608497e+09 1.03608501e+09 1.03608505e+09
 1.03608509e+09 1.03608513e+09 1.03608518e+09 1.03608522e+09
 1.03608526e+09 1.03608530e+09 1.03608534e+09 1.03608538e+09
 1.03608542e+09 1.03608546e+09 1.03608550e+09 1.03608554e+09
 1.03608558e+09 1.03608562e+09 1.03608566e+09 1.03608571e+09
 1.03608575e+09 1.03608579e+09 1.03608583e+09 1.03608587e+09
 1.03608591e+09 1.03608595e+09 1.03608599e+09 1.03608603e+09
 1.03608607e+09 1.03608611e+09 1.03608615e+09 1.03608619e+09
 1.03608624e+09 1.03608628e+09 1.03608632e+09 1.03608636e+09
 1.03608640e+09 1.03608644e+09 1.03608648e+09 1.03608652e+09
 1.03608656e+09 1.03608660e+09 1.03608664e+09 1.03608668e+09
 1.03608672e+09 1.03608677e+09 1.03608681e+09 1.03608685e+09
 1.03608689e+09 1.03608693e+09 1.03608697e+09 1.03608701e+09
 1.03608705e+09 1.03608709e+09 1.03608713e+09 1.03608717e+09
 1.03608721e+09 1.03608725e+09 1.03608730e+09 1.03608734e+09
 1.03608738e+09 1.03608742e+09 1.03608746e+09 1.03608750e+09
 1.03608754e+09 1.03608758e+09 1.03608762e+09 1.03608766e+09
 1.03608770e+09 1.03608774e+09 1.03608779e+09 1.03608783e+09
 1.03608787e+09 1.03608791e+09 1.03608795e+09 1.03608799e+09
 1.03608803e+09 1.03608807e+09 1.03608811e+09 1.03608815e+09
 1.03608819e+09 1.03608823e+09 1.03608827e+09 1.03608832e+09
 1.03608836e+09 1.03608840e+09 1.03608844e+09 1.03608848e+09
 1.03608852e+09 1.03608856e+09 1.03608860e+09 1.03608864e+09
 1.03608868e+09 1.03608872e+09 1.03608876e+09 1.03608880e+09
 1.03608885e+09 1.03608889e+09 1.03608893e+09 1.03608897e+09
 1.03608901e+09 1.03608905e+09 1.03608909e+09 1.03608913e+09
 1.03608917e+09 1.03608921e+09 1.03608925e+09 1.03608929e+09
 1.03608933e+09 1.03608938e+09 1.03608942e+09 1.03608946e+09
 1.03608950e+09 1.03608954e+09 1.03608958e+09 1.03608962e+09
 1.03608966e+09 1.03608970e+09 1.03608974e+09 1.03608978e+09
 1.03608982e+09 1.03608986e+09 1.03608991e+09 1.03608995e+09
 1.03608999e+09 1.03609003e+09 1.03609007e+09 1.03609011e+09
 1.03609015e+09 1.03609019e+09 1.03609023e+09 1.03609027e+09
 1.03609031e+09 1.03609035e+09 1.03609040e+09 1.03609044e+09
 1.03609048e+09 1.03609052e+09 1.03609056e+09 1.03609060e+09
 1.03609064e+09 1.03609068e+09 1.03609072e+09 1.03609076e+09
 1.03609080e+09 1.03609084e+09 1.03609088e+09 1.03609093e+09
 1.03609097e+09 1.03609101e+09 1.03609105e+09 1.03609109e+09
 1.03609113e+09 1.03609117e+09 1.03609121e+09 1.03609125e+09
 1.03609129e+09 1.03609133e+09 1.03609137e+09 1.03609141e+09
 1.03609146e+09 1.03609150e+09 1.03609154e+09 1.03609158e+09
 1.03609162e+09 1.03609166e+09 1.03609170e+09 1.03609174e+09
 1.03609178e+09 1.03609182e+09 1.03609186e+09 1.03609190e+09
 1.03609194e+09 1.03609199e+09 1.03609203e+09 1.03609207e+09
 1.03609211e+09 1.03609215e+09 1.03609219e+09 1.03609223e+09
 1.03609227e+09 1.03609231e+09 1.03609235e+09 1.03609239e+09
 1.03609243e+09 1.03609247e+09 1.03609252e+09 1.03609256e+09
 1.03609260e+09 1.03609264e+09 1.03609268e+09 1.03609272e+09
 1.03609276e+09 1.03609280e+09 1.03609284e+09 1.03609288e+09
 1.03609292e+09 1.03609296e+09 1.03609301e+09 1.03609305e+09
 1.03609309e+09 1.03609313e+09 1.03609317e+09 1.03609321e+09
 1.03609325e+09 1.03609329e+09 1.03609333e+09 1.03609337e+09
 1.03609341e+09 1.03609345e+09 1.03609349e+09 1.03609354e+09
 1.03609358e+09 1.03609362e+09 1.03609366e+09 1.03609370e+09
 1.03609374e+09 1.03609378e+09 1.03609382e+09 1.03609386e+09
 1.03609390e+09 1.03609394e+09 1.03609398e+09 1.03609402e+09
 1.03609407e+09 1.03609411e+09 1.03609415e+09 1.03609419e+09
 1.03609423e+09 1.03609427e+09 1.03609431e+09 1.03609435e+09
 1.03609439e+09 1.03609443e+09 1.03609447e+09 1.03609451e+09
 1.03609455e+09 1.03609460e+09 1.03609464e+09 1.03609468e+09
 1.03609472e+09 1.03609476e+09 1.03609480e+09 1.03609484e+09
 1.03609488e+09 1.03609492e+09 1.03609496e+09 1.03609500e+09
 1.03609504e+09 1.03609508e+09 1.03609513e+09 1.03609517e+09
 1.03609521e+09 1.03609525e+09 1.03609529e+09 1.03609533e+09
 1.03609537e+09 1.03609541e+09 1.03609545e+09 1.03609549e+09
 1.03609553e+09 1.03609557e+09 1.03609562e+09 1.03609566e+09
 1.03609570e+09 1.03609574e+09 1.03609578e+09 1.03609582e+09
 1.03609586e+09 1.03609590e+09 1.03609594e+09 1.03609598e+09
 1.03609602e+09 1.03609606e+09 1.03609610e+09 1.03609615e+09
 1.03609619e+09 1.03609623e+09 1.03609627e+09 1.03609631e+09
 1.03609635e+09 1.03609639e+09 1.03609643e+09 1.03609647e+09
 1.03609651e+09 1.03609655e+09 1.03609659e+09 1.03609663e+09
 1.03609668e+09 1.03609672e+09 1.03609676e+09 1.03609680e+09
 1.03609684e+09 1.03609688e+09 1.03609692e+09 1.03609696e+09
 1.03609700e+09 1.03609704e+09 1.03609708e+09 1.03609712e+09
 1.03609716e+09 1.03609721e+09 1.03609725e+09 1.03609729e+09
 1.03609733e+09 1.03609737e+09 1.03609741e+09 1.03609745e+09
 1.03609749e+09 1.03609753e+09 1.03609757e+09 1.03609761e+09
 1.03609765e+09 1.03609769e+09 1.03609774e+09 1.03609778e+09
 1.03609782e+09 1.03609786e+09 1.03609790e+09 1.03609794e+09
 1.03609798e+09 1.03609802e+09 1.03609806e+09 1.03609810e+09
 1.03609814e+09 1.03609818e+09 1.03609822e+09 1.03609827e+09
 1.03609831e+09 1.03609835e+09 1.03609839e+09 1.03609843e+09
 1.03609847e+09 1.03609851e+09 1.03609855e+09 1.03609859e+09
 1.03609863e+09 1.03609867e+09 1.03609871e+09 1.03609876e+09
 1.03609880e+09 1.03609884e+09 1.03609888e+09 1.03609892e+09
 1.03609896e+09 1.03609900e+09 1.03609904e+09 1.03609908e+09
 1.03609912e+09 1.03609916e+09 1.03609920e+09 1.03609924e+09
 1.03609929e+09 1.03609933e+09 1.03609937e+09 1.03609941e+09
