name =JUICE_ROI_CAL_3_0_05
flyby =  ['2033 JUL 16 02:11:44', '2033 JUL 17 02:11:44']
Observation TW =  <SpiceCell dtype = 1, length = 0, size = 2400, card = 4, is_set = 1, adjust = 0, init = 1, base = 2554797950128, data = 2554797950176>
Res(t) =  [0.56621116 0.56933347 0.57250191 0.575714   0.57896743 0.58226007
 0.5855899  0.58895507 0.59235383 0.59578456 0.59924572 0.60273588
 0.60625369 0.60979791 0.61336732 0.61696083 0.62057737 0.62421596
 0.62787564 0.63155554 0.63525482 0.63897268 0.64270837 0.64646118
 0.65023044 0.6540155  0.65781575 0.66163062 0.66545955 0.66930203
 0.67315754 0.67702563 0.68090582 0.68479769 0.68870083 0.69261485
 0.69653936 0.700474   0.70441844 0.70837233 0.71233537 0.71630726
 0.72028769 0.72427641 0.72827312 0.73227759 0.73628957 0.74030881
 0.7443351  0.74836821 0.75240794 0.75645408 0.76050644 0.76456483
 0.76862908 0.772699   0.77677443 0.78085521 0.78494119 0.78903221
 0.79312813 0.79722881 0.80133412 0.80544392 0.80955809 0.8136765
 0.81779905 0.82192561 0.82605607 0.83019034 0.8343283  0.83846985
 0.8426149  0.84676336 0.85091513 0.85507013 0.85922827 0.86338947
 0.86755364 0.87172072 0.87589062 0.88006327 0.88423861 0.88841655
 0.89259704 0.89678001 0.9051976  0.90937587 0.91355656 0.91773962
 0.92192498 0.92611258 0.93030236 0.93449429 0.93868829 0.94288432
 0.94708233 0.95128228 0.9554841  0.95968776 0.96389321 0.96810041
 0.97230931 0.97651987 0.98073206 0.98494582 0.98916113 0.99337795
 0.99759623 1.00181595 1.00603706 1.01025954 1.01448334 1.01870845
 1.02293481 1.02716242 1.03139123 1.03562121 1.03985233 1.04408458
 1.04831791 1.05255231 1.05678774 1.06102418 1.06526161 1.0695
 1.07373933 1.07797956 1.08222069 1.08646269 1.09070553 1.09494919
 1.09919366 1.10343891 1.10768492 1.11193167 1.11617914 1.12042732
 1.12467618 1.12892571 1.13317589 1.1374267  1.14167813 1.14593015
 1.15018275 1.15443592 1.15868964 1.16294389 1.16719866 1.17145393
 1.1757097  1.17996594 1.18422264 1.18847978 1.19273737 1.19699537
 1.20125378 1.20551258 1.20977177 1.21403133 1.21829125 1.22255151
 1.22681211 1.23107303 1.23533426 1.2395958  1.24385762 1.24811973
 1.25238211 1.25664475 1.26090763 1.26517076 1.26943412 1.27369769
 1.27796148 1.28222547 1.28648966 1.29075403 1.29501858 1.29928329
 1.30354816 1.30781319 1.31207835 1.31634366 1.32060908 1.32487463
 1.32914029 1.33340606 1.33767192 1.34193787 1.3462039  1.35047001
 1.35473619 1.35900243 1.36326873 1.36753507 1.37180146 1.37606788
 1.38033434 1.38460082 1.38886731 1.39313382 1.39740034 1.40166685
 1.40593336 1.41019986 1.41446635 1.41873281 1.42299924 1.42726565
 1.43153201 1.43579834 1.44006461 1.44433084 1.448597   1.45286311
 1.45712915 1.46139511 1.46566101 1.46992682 1.47419254 1.47845818
 1.48272372 1.48698917 1.49125452 1.49551975 1.49978488 1.5040499
 1.50831479 1.51257957 1.51684422 1.52110874 1.52537312 1.52963737
 1.53390148 1.53816545 1.54242926 1.54669293 1.55095644 1.5552198
 1.55948299 1.56374602 1.56800888 1.57227157 1.57653408 1.58079642
 1.58505858 1.58932055 1.59358234 1.59784394 1.60210534 1.60636655
 1.61062757 1.61488838 1.61914899 1.62340939 1.62766958 1.63192956
 1.63618933 1.64044888 1.64470821 1.64896732 1.6532262  1.65748486
 1.66174329 1.66600148 1.67025944 1.67451717 1.67877466 1.6830319
 1.6872889  1.69154566 1.69580217 1.70005842 1.70431443 1.70857018
 1.71282568 1.71708091 1.72133589 1.7255906  1.72984505 1.73409923
 1.73835315 1.74260679 1.74686016 1.75111326 1.75536608 1.75961862
 1.76387088 1.76812287 1.77237456 1.77662598 1.7808771  1.78512794
 1.78937849 1.79362874 1.7978787  1.80212837 1.80637774 1.81062681
 1.81487558 1.81912405 1.82337222 1.82762008 1.83186763 1.83611488
 1.84036182 1.84460845 1.84885476 1.85310076 1.85734645 1.86159182
 1.86583687 1.87008161 1.87432602 1.87857011 1.88281388 1.88705732
 1.89130044 1.89554323 1.89978569 1.90402782 1.90826963 1.91251109
 1.91675223 1.92099303 1.9252335  1.92947363 1.93371342 1.93795287
 1.94219198 1.94643075 1.95066917 1.95490726 1.95914499 1.96338238
 1.96761943 1.97185613 1.97609247 1.98032847 1.98456411 1.98879941
 1.99303435 1.99726893 2.00150316 2.00573704 2.00997055 2.01420371
 2.01843651 2.02266895 2.02690103 2.03113274 2.03536409 2.03959508
 2.04382571 2.04805596 2.05228585 2.05651538 2.06074453 2.06497332
 2.06920174 2.07342978 2.07765746 2.08188476 2.08611168 2.09033824
 2.09456442 2.09879022 2.10301564 2.10724069 2.11146536 2.11568965
 2.11991357 2.1241371  2.12836025 2.13258301 2.1368054  2.1410274
 2.14524902 2.14947025 2.1536911  2.15791156 2.16213163 2.16635132
 2.17057062 2.17478952 2.17900804 2.18322617 2.18744391 2.19166125
 2.19587821 2.20009477 2.20431093 2.20852671 2.21274208 2.21695707
 2.22117165 2.22538584 2.22959963 2.23381302 2.23802602 2.24223861
 2.24645081 2.25066261 2.254874   2.25908499 2.26329558 2.26750577
 2.27171556 2.27592494 2.28013392 2.28434249 2.28855066 2.29275842
 2.29696577 2.30117272 2.30537926 2.30958539 2.31379112 2.31799643
 2.32220133 2.32640583 2.33060991 2.33481359 2.33901685 2.3432197
 2.34742214 2.35162416 2.35582577 2.36002697 2.36422775 2.36842812
 2.37262807 2.37682761 2.38102673 2.38522543 2.38942372 2.39362159
 2.39781904 2.40201607 2.40621268 2.41040888 2.41460465 2.41880001
 2.42299494 2.42718945 2.43138354 2.43557721 2.43977046 2.44396328
 2.44815569 2.45234766 2.45653922 2.46073035 2.46492105 2.46911133
 2.47330119 2.47749062 2.48167962 2.4858682  2.49005635 2.49424407
 2.49843136 2.50261823 2.50680467 2.51099068 2.51517626 2.51936141
 2.52354613 2.52773042 2.53191428 2.53609771 2.54028071 2.54446327
 2.54864541 2.55282711 2.55700838 2.56118922 2.56536962 2.56954959
 2.57372913 2.57790823 2.5820869  2.58626513 2.59044293 2.59462029
 2.59879722 2.60297371 2.60714976 2.61132538 2.61550056 2.61967531
 2.62384961 2.62802348 2.63219691 2.6363699  2.64054245 2.64471457
 2.64888624 2.65305747 2.65722827 2.66139862 2.66556854 2.66973801
 2.67390704 2.67807563 2.68224378 2.68641149 2.69057875 2.69474557
 2.69891195 2.70307789 2.70724338 2.71140843 2.71557304 2.7197372
 2.72390092 2.72806419 2.73222702 2.73638941 2.74055135 2.74471284
 2.74887389 2.75303449 2.75719464 2.76135435 2.76551361 2.76967243
 2.7738308  2.77798872 2.78214619 2.78630321 2.79045979 2.79461592
 2.7987716  2.80292683 2.80708161 2.81123594 2.81538982 2.81954326
 2.82369624 2.82784877 2.83200085 2.83615249 2.84030367 2.8444544
 2.84860468 2.8527545  2.85690388 2.8610528  2.86520127 2.86934929
 2.87349686 2.87764397 2.88179063 2.88593684 2.89008259 2.89422789
 2.89837274 2.90251713 2.90666107 2.91080456 2.91494759 2.91909016
 2.92323228 2.92737394 2.93151515 2.93565591 2.93979621 2.94393605
 2.94807543 2.95221436 2.95635284 2.96049085 2.96462841 2.96876552
 2.97290216 2.97703835 2.98117408 2.98530935 2.98944417 2.99357853
 2.99771242 3.00184586 3.00597884 3.01011137 3.01424343 3.01837503
 3.02250618 3.02663686 3.03076709 3.03489686 3.03902616 3.04315501
 3.04728339 3.05141132 3.05553878 3.05966578 3.06379233 3.06791841
 3.07204403 3.07616918 3.08029388 3.08441812 3.08854189 3.0926652
 3.09678805 3.10091043 3.10503236 3.10915382 3.11327481 3.11739535
 3.12151542 3.12563503 3.12975417 3.13387285 3.13799107 3.14210882
 3.14622611 3.15034293 3.15445929 3.15857519 3.16269062 3.16680558
 3.17092009 3.17503412 3.17914769 3.1832608  3.18737344 3.19148561
 3.19559732 3.19970856 3.20381933 3.20792964 3.21203949 3.21614886
 3.22025777 3.22436622 3.22847419 3.2325817  3.23668874 3.24079532
 3.24490142 3.24900706 3.25311223 3.25721694 3.26132117 3.26542494
 3.26952824 3.27363107 3.27773343 3.28183532 3.28593675 3.2900377
 3.29413819 3.29823821 3.30233775 3.30643683 3.31053544 3.31463358
 3.31873125 3.32282845 3.32692518 3.33102144 3.33511723 3.33921255
 3.34330739 3.34740177 3.35149568 3.35558911 3.35968208 3.36377457
 3.36786659 3.37195815 3.37604923 3.38013983 3.38422997 3.38831963
 3.39240883 3.39649755 3.40058579 3.40467357 3.40876087 3.4128477
 3.41693406 3.42101995 3.42510536 3.4291903  3.43327477 3.43735876
 3.44144228 3.44552533 3.4496079  3.45369    3.45777163 3.46185278
 3.46593346 3.47001366 3.47409339 3.47817264 3.48225143 3.48632973
 3.49040756 3.49448492 3.4985618  3.50263821 3.50671415 3.5107896
 3.51486459 3.51893909 3.52301312 3.52708668 3.53115976 3.53523237
 3.5393045  3.54337615 3.54744733 3.55151803 3.55558825 3.559658
 3.56372727 3.56779607 3.57186439 3.57593223 3.57999959 3.58406648
 3.58813289 3.59219883 3.59626429 3.60032927 3.60439377 3.60845779
 3.61252134 3.61658441 3.620647   3.62470912 3.62877076 3.63283191
 3.63689259 3.6409528  3.64501252 3.64907176 3.65313053 3.65718882
 3.66124663 3.66530396 3.66936081 3.67341718 3.67747308 3.68152849
 3.68558343 3.68963789 3.69369186 3.69774536 3.70179838 3.70585092
 3.70990297 3.71395455 3.71800565 3.72205627 3.72610641 3.73015607
 3.73420524 3.73825394 3.74230216 3.7463499  3.75039715 3.75444393
 3.75849022 3.76253604 3.76658137 3.77062622 3.77467059 3.77871448
 3.78275789 3.78680082 3.79084326 3.79488523 3.79892671 3.80296771
 3.80700823 3.81104826 3.81508782 3.81912689 3.82316548 3.82720359
 3.83124122 3.83527836 3.83931503 3.8433512  3.8473869  3.85142212
 3.85545685 3.8594911  3.86352486 3.86755814 3.87159094 3.87562326
 3.87965509 3.88368644 3.88771731 3.89174769 3.89577759 3.89980701
 3.90383594 3.90786439 3.91189236 3.91591984 3.91994683 3.92397335
 3.92799938 3.93202492 3.93604998 3.94007456 3.94409865 3.94812226
 3.95214538 3.95616802 3.96019017 3.96421184 3.96823303 3.97225373
 3.97627394 3.98029367 3.98431291 3.98833167 3.99234994 3.99636773
 4.00038504 4.00440185 4.00841818 4.01243403 4.01644939 4.02046426
 4.02447865 4.02849256 4.03250597 4.0365189  4.04053135 4.04454331
 4.04855478 4.05256576 4.05657626 4.06058628 4.0645958  4.06860484
 4.0726134  4.07662146 4.08062904 4.08463613 4.08864274 4.09264886
 4.09665449 4.10065963 4.10466429 4.10866846 4.11267214 4.11667534
 4.12067805 4.12468027 4.128682   4.13268324 4.136684   4.14068427
 4.14468405 4.14868335 4.15268215 4.15668047 4.1606783  4.16467564
 4.16867249 4.17266886 4.17666473 4.18066012 4.18465502 4.18864943
 4.19264335 4.19663678 4.20062973 4.20462218 4.20861415 4.21260563
 4.21659662 4.22058712 4.22457713 4.22856665 4.23255568 4.23654422
 4.24053227 4.24451984 4.24850691 4.2524935  4.25647959 4.2604652
 4.26445031 4.26843494 4.27241907 4.27640272 4.28038587 4.28436854
 4.28835072 4.2923324  4.2963136  4.3002943  4.30427451 4.30825424
 4.31223347 4.31621221 4.32019047 4.32416823 4.3281455  4.33212228
 4.33609857 4.34007437 4.34404967 4.34802449 4.35199882 4.35597265
 4.35994599 4.36391884 4.3678912  4.37186307 4.37583445 4.37980534
 4.38377573 4.38774563 4.39171504 4.39568396 4.39965239 4.40362033
 4.40758777 4.41155472 4.41552118 4.41948715 4.42345263 4.42741761
 4.4313821  4.4353461  4.43930961 4.44327262 4.44723514 4.45119717
 4.45515871 4.45911975 4.4630803  4.46704036 4.47099993 4.474959
 4.47891758 4.48287567 4.48683326 4.49079037 4.49474697 4.49870309
 4.50265871 4.50661384 4.51056847 4.51452261 4.51847626 4.52242942
 4.52638208 4.53033425 4.53428592 4.5382371  4.54218779 4.54613798
 4.55008768 4.55403688 4.55798559 4.56193381 4.56588153 4.56982876
 4.5737755  4.57772174 4.58166748 4.58561274 4.58955749 4.59350176
 4.59744552 4.6013888  4.60533158 4.60927386 4.61321565 4.61715695
 4.62109775 4.62503805 4.62897786 4.63291718 4.636856   4.64079432
 4.64473215 4.64866949 4.65260633 4.65654267 4.66047852 4.66441388
 4.66834873 4.6722831  4.67621696 4.68015034]
t =  [1.05841166e+09 1.05841170e+09 1.05841174e+09 1.05841178e+09
 1.05841182e+09 1.05841186e+09 1.05841190e+09 1.05841194e+09
 1.05841198e+09 1.05841202e+09 1.05841206e+09 1.05841210e+09
 1.05841214e+09 1.05841218e+09 1.05841222e+09 1.05841226e+09
 1.05841230e+09 1.05841234e+09 1.05841238e+09 1.05841241e+09
 1.05841245e+09 1.05841249e+09 1.05841253e+09 1.05841257e+09
 1.05841261e+09 1.05841265e+09 1.05841269e+09 1.05841273e+09
 1.05841277e+09 1.05841281e+09 1.05841285e+09 1.05841289e+09
 1.05841293e+09 1.05841297e+09 1.05841301e+09 1.05841305e+09
 1.05841309e+09 1.05841313e+09 1.05841317e+09 1.05841321e+09
 1.05841325e+09 1.05841328e+09 1.05841332e+09 1.05841336e+09
 1.05841340e+09 1.05841344e+09 1.05841348e+09 1.05841352e+09
 1.05841356e+09 1.05841360e+09 1.05841364e+09 1.05841368e+09
 1.05841372e+09 1.05841376e+09 1.05841380e+09 1.05841384e+09
 1.05841388e+09 1.05841392e+09 1.05841396e+09 1.05841400e+09
 1.05841404e+09 1.05841408e+09 1.05841412e+09 1.05841415e+09
 1.05841419e+09 1.05841423e+09 1.05841427e+09 1.05841431e+09
 1.05841435e+09 1.05841439e+09 1.05841443e+09 1.05841447e+09
 1.05841451e+09 1.05841455e+09 1.05841459e+09 1.05841463e+09
 1.05841467e+09 1.05841471e+09 1.05841475e+09 1.05841479e+09
 1.05841483e+09 1.05841487e+09 1.05841491e+09 1.05841495e+09
 1.05841499e+09 1.05841502e+09 1.05841506e+09 1.05841510e+09
 1.05841514e+09 1.05841518e+09 1.05841522e+09 1.05841526e+09
 1.05841530e+09 1.05841534e+09 1.05841538e+09 1.05841542e+09
 1.05841546e+09 1.05841550e+09 1.05841554e+09 1.05841558e+09
 1.05841562e+09 1.05841566e+09 1.05841570e+09 1.05841574e+09
 1.05841578e+09 1.05841582e+09 1.05841586e+09 1.05841589e+09
 1.05841593e+09 1.05841597e+09 1.05841601e+09 1.05841605e+09
 1.05841609e+09 1.05841613e+09 1.05841617e+09 1.05841621e+09
 1.05841625e+09 1.05841629e+09 1.05841633e+09 1.05841637e+09
 1.05841641e+09 1.05841645e+09 1.05841649e+09 1.05841653e+09
 1.05841657e+09 1.05841661e+09 1.05841665e+09 1.05841669e+09
 1.05841673e+09 1.05841677e+09 1.05841680e+09 1.05841684e+09
 1.05841688e+09 1.05841692e+09 1.05841696e+09 1.05841700e+09
 1.05841704e+09 1.05841708e+09 1.05841712e+09 1.05841716e+09
 1.05841720e+09 1.05841724e+09 1.05841728e+09 1.05841732e+09
 1.05841736e+09 1.05841740e+09 1.05841744e+09 1.05841748e+09
 1.05841752e+09 1.05841756e+09 1.05841760e+09 1.05841764e+09
 1.05841767e+09 1.05841771e+09 1.05841775e+09 1.05841779e+09
 1.05841783e+09 1.05841787e+09 1.05841791e+09 1.05841795e+09
 1.05841799e+09 1.05841803e+09 1.05841807e+09 1.05841811e+09
 1.05841815e+09 1.05841819e+09 1.05841823e+09 1.05841827e+09
 1.05841831e+09 1.05841835e+09 1.05841839e+09 1.05841843e+09
 1.05841847e+09 1.05841851e+09 1.05841854e+09 1.05841858e+09
 1.05841862e+09 1.05841866e+09 1.05841870e+09 1.05841874e+09
 1.05841878e+09 1.05841882e+09 1.05841886e+09 1.05841890e+09
 1.05841894e+09 1.05841898e+09 1.05841902e+09 1.05841906e+09
 1.05841910e+09 1.05841914e+09 1.05841918e+09 1.05841922e+09
 1.05841926e+09 1.05841930e+09 1.05841934e+09 1.05841938e+09
 1.05841941e+09 1.05841945e+09 1.05841949e+09 1.05841953e+09
 1.05841957e+09 1.05841961e+09 1.05841965e+09 1.05841969e+09
 1.05841973e+09 1.05841977e+09 1.05841981e+09 1.05841985e+09
 1.05841989e+09 1.05841993e+09 1.05841997e+09 1.05842001e+09
 1.05842005e+09 1.05842009e+09 1.05842013e+09 1.05842017e+09
 1.05842021e+09 1.05842025e+09 1.05842028e+09 1.05842032e+09
 1.05842036e+09 1.05842040e+09 1.05842044e+09 1.05842048e+09
 1.05842052e+09 1.05842056e+09 1.05842060e+09 1.05842064e+09
 1.05842068e+09 1.05842072e+09 1.05842076e+09 1.05842080e+09
 1.05842084e+09 1.05842088e+09 1.05842092e+09 1.05842096e+09
 1.05842100e+09 1.05842104e+09 1.05842108e+09 1.05842112e+09
 1.05842116e+09 1.05842119e+09 1.05842123e+09 1.05842127e+09
 1.05842131e+09 1.05842135e+09 1.05842139e+09 1.05842143e+09
 1.05842147e+09 1.05842151e+09 1.05842155e+09 1.05842159e+09
 1.05842163e+09 1.05842167e+09 1.05842171e+09 1.05842175e+09
 1.05842179e+09 1.05842183e+09 1.05842187e+09 1.05842191e+09
 1.05842195e+09 1.05842199e+09 1.05842203e+09 1.05842206e+09
 1.05842210e+09 1.05842214e+09 1.05842218e+09 1.05842222e+09
 1.05842226e+09 1.05842230e+09 1.05842234e+09 1.05842238e+09
 1.05842242e+09 1.05842246e+09 1.05842250e+09 1.05842254e+09
 1.05842258e+09 1.05842262e+09 1.05842266e+09 1.05842270e+09
 1.05842274e+09 1.05842278e+09 1.05842282e+09 1.05842286e+09
 1.05842290e+09 1.05842293e+09 1.05842297e+09 1.05842301e+09
 1.05842305e+09 1.05842309e+09 1.05842313e+09 1.05842317e+09
 1.05842321e+09 1.05842325e+09 1.05842329e+09 1.05842333e+09
 1.05842337e+09 1.05842341e+09 1.05842345e+09 1.05842349e+09
 1.05842353e+09 1.05842357e+09 1.05842361e+09 1.05842365e+09
 1.05842369e+09 1.05842373e+09 1.05842377e+09 1.05842380e+09
 1.05842384e+09 1.05842388e+09 1.05842392e+09 1.05842396e+09
 1.05842400e+09 1.05842404e+09 1.05842408e+09 1.05842412e+09
 1.05842416e+09 1.05842420e+09 1.05842424e+09 1.05842428e+09
 1.05842432e+09 1.05842436e+09 1.05842440e+09 1.05842444e+09
 1.05842448e+09 1.05842452e+09 1.05842456e+09 1.05842460e+09
 1.05842464e+09 1.05842467e+09 1.05842471e+09 1.05842475e+09
 1.05842479e+09 1.05842483e+09 1.05842487e+09 1.05842491e+09
 1.05842495e+09 1.05842499e+09 1.05842503e+09 1.05842507e+09
 1.05842511e+09 1.05842515e+09 1.05842519e+09 1.05842523e+09
 1.05842527e+09 1.05842531e+09 1.05842535e+09 1.05842539e+09
 1.05842543e+09 1.05842547e+09 1.05842551e+09 1.05842555e+09
 1.05842558e+09 1.05842562e+09 1.05842566e+09 1.05842570e+09
 1.05842574e+09 1.05842578e+09 1.05842582e+09 1.05842586e+09
 1.05842590e+09 1.05842594e+09 1.05842598e+09 1.05842602e+09
 1.05842606e+09 1.05842610e+09 1.05842614e+09 1.05842618e+09
 1.05842622e+09 1.05842626e+09 1.05842630e+09 1.05842634e+09
 1.05842638e+09 1.05842642e+09 1.05842645e+09 1.05842649e+09
 1.05842653e+09 1.05842657e+09 1.05842661e+09 1.05842665e+09
 1.05842669e+09 1.05842673e+09 1.05842677e+09 1.05842681e+09
 1.05842685e+09 1.05842689e+09 1.05842693e+09 1.05842697e+09
 1.05842701e+09 1.05842705e+09 1.05842709e+09 1.05842713e+09
 1.05842717e+09 1.05842721e+09 1.05842725e+09 1.05842729e+09
 1.05842732e+09 1.05842736e+09 1.05842740e+09 1.05842744e+09
 1.05842748e+09 1.05842752e+09 1.05842756e+09 1.05842760e+09
 1.05842764e+09 1.05842768e+09 1.05842772e+09 1.05842776e+09
 1.05842780e+09 1.05842784e+09 1.05842788e+09 1.05842792e+09
 1.05842796e+09 1.05842800e+09 1.05842804e+09 1.05842808e+09
 1.05842812e+09 1.05842816e+09 1.05842819e+09 1.05842823e+09
 1.05842827e+09 1.05842831e+09 1.05842835e+09 1.05842839e+09
 1.05842843e+09 1.05842847e+09 1.05842851e+09 1.05842855e+09
 1.05842859e+09 1.05842863e+09 1.05842867e+09 1.05842871e+09
 1.05842875e+09 1.05842879e+09 1.05842883e+09 1.05842887e+09
 1.05842891e+09 1.05842895e+09 1.05842899e+09 1.05842903e+09
 1.05842906e+09 1.05842910e+09 1.05842914e+09 1.05842918e+09
 1.05842922e+09 1.05842926e+09 1.05842930e+09 1.05842934e+09
 1.05842938e+09 1.05842942e+09 1.05842946e+09 1.05842950e+09
 1.05842954e+09 1.05842958e+09 1.05842962e+09 1.05842966e+09
 1.05842970e+09 1.05842974e+09 1.05842978e+09 1.05842982e+09
 1.05842986e+09 1.05842990e+09 1.05842994e+09 1.05842997e+09
 1.05843001e+09 1.05843005e+09 1.05843009e+09 1.05843013e+09
 1.05843017e+09 1.05843021e+09 1.05843025e+09 1.05843029e+09
 1.05843033e+09 1.05843037e+09 1.05843041e+09 1.05843045e+09
 1.05843049e+09 1.05843053e+09 1.05843057e+09 1.05843061e+09
 1.05843065e+09 1.05843069e+09 1.05843073e+09 1.05843077e+09
 1.05843081e+09 1.05843084e+09 1.05843088e+09 1.05843092e+09
 1.05843096e+09 1.05843100e+09 1.05843104e+09 1.05843108e+09
 1.05843112e+09 1.05843116e+09 1.05843120e+09 1.05843124e+09
 1.05843128e+09 1.05843132e+09 1.05843136e+09 1.05843140e+09
 1.05843144e+09 1.05843148e+09 1.05843152e+09 1.05843156e+09
 1.05843160e+09 1.05843164e+09 1.05843168e+09 1.05843171e+09
 1.05843175e+09 1.05843179e+09 1.05843183e+09 1.05843187e+09
 1.05843191e+09 1.05843195e+09 1.05843199e+09 1.05843203e+09
 1.05843207e+09 1.05843211e+09 1.05843215e+09 1.05843219e+09
 1.05843223e+09 1.05843227e+09 1.05843231e+09 1.05843235e+09
 1.05843239e+09 1.05843243e+09 1.05843247e+09 1.05843251e+09
 1.05843255e+09 1.05843258e+09 1.05843262e+09 1.05843266e+09
 1.05843270e+09 1.05843274e+09 1.05843278e+09 1.05843282e+09
 1.05843286e+09 1.05843290e+09 1.05843294e+09 1.05843298e+09
 1.05843302e+09 1.05843306e+09 1.05843310e+09 1.05843314e+09
 1.05843318e+09 1.05843322e+09 1.05843326e+09 1.05843330e+09
 1.05843334e+09 1.05843338e+09 1.05843342e+09 1.05843345e+09
 1.05843349e+09 1.05843353e+09 1.05843357e+09 1.05843361e+09
 1.05843365e+09 1.05843369e+09 1.05843373e+09 1.05843377e+09
