name =JUICE_ROI_CAL_3_0_02
flyby =  ['2033 JUL 16 02:11:44', '2033 JUL 17 02:11:44']
Observation TW =  <SpiceCell dtype = 1, length = 0, size = 3200, card = 12, is_set = 1, adjust = 0, init = 1, base = 2554797301744, data = 2554797301792>
Res(t) =  [0.35290698 0.35473244 0.35671539 0.35884048 0.36109431 0.36346516
 0.36594269 0.36851777 0.3711823  0.37392907 0.37675161 0.37964415
 0.38260147 0.38561887 0.38869211 0.39181732 0.39499101 0.39820997
 0.40147128 0.40477228 0.4081105  0.4114837  0.4148898  0.41832688
 0.42179318 0.42528706 0.42880701 0.4323516  0.43591954 0.43950961
 0.44312067 0.44675166 0.4504016  0.45406954 0.45775463 0.46145606
 0.46517305 0.4689049  0.47265092 0.47641049 0.480183   0.48396789
 0.48776463 0.49157271 0.49539166 0.49922102 0.50306038 0.50690933
 0.51076748 0.51463448 0.51850996 0.52239362 0.52628514 0.53018421
 0.53409056 0.53800392 0.54192402 0.54585064 0.54978352 0.55372246
 0.55766723 0.56161764 0.56557348 0.56953457 0.57350074 0.57747181
 0.58144762 0.58542801 0.58941283 0.59340194 0.59739519 0.60139247
 0.60539362 0.60939855 0.61340711 0.61741922 0.62143474 0.62545358
 0.62947564 0.63350082 0.63752903 0.64156017 0.64559415 0.6496309
 0.65367033 0.65771237 0.66175693 0.66580395 0.66985335 0.67390507
 0.67795903 0.68201519 0.68607346 0.6901338  0.69419615 0.69826045
 0.70232665 0.70639469 0.71046452 0.7145361  0.71860938 0.72268431
 0.72676084 0.73083894 0.73491855 0.73899965 0.74308219 0.74716612
 0.75125143 0.75533806 0.75942598 0.76351516 0.76760557 0.77169717
 0.77578993 0.77988383 0.78397882 0.79138989 0.79548158 0.79957436
 0.80366819 0.80776305 0.81185892 0.81595576 0.82005356 0.82415228
 0.82825191 0.83235241 0.83645377 0.84055597 0.84465899 0.84876279
 0.85286737 0.8569727  0.86107876 0.86518554 0.86929302 0.87340117
 0.87750998 0.88161943 0.88572951 0.8898402  0.89395148 0.89806334
 0.90217577 0.90628874 0.91040224 0.91451626 0.91863079 0.92274581
 0.9268613  0.93097727 0.93509368 0.93921053 0.94332781 0.9474455
 0.9515636  0.9556821  0.95980097 0.96392021 0.96803981 0.97215976
 0.97628006 0.98040068 0.98452161 0.98864286 0.99276441 0.99688625
 1.00100837 1.00513076 1.00925342 1.01337633 1.0174995  1.0216229
 1.02574653 1.02987038 1.03399445 1.03811873 1.04224321 1.04636788
 1.05049274 1.05461778 1.05874299 1.06286837 1.06699391 1.0711196
 1.07524543 1.07937141 1.08349752 1.08762376 1.09175012 1.09587659
 1.10000318 1.10412987 1.10825667 1.11238355 1.11651053 1.12063759
 1.12476473 1.12889194 1.13301922 1.13714656 1.14127397 1.14540142
 1.14952893 1.15365649 1.15778408 1.16191171 1.16603938 1.17016707
 1.17429478 1.17842252 1.18255027 1.18667804 1.19080581 1.19493358
 1.19906136 1.20318914 1.2073169  1.21144466 1.2155724  1.21970013
 1.22382783 1.22795551 1.23208317 1.23621079 1.24033838 1.24446593
 1.24859345 1.25272092 1.25684834 1.26097571 1.26510304 1.2692303
 1.27335752 1.27748467 1.28161175 1.28573877 1.28986573 1.29399261
 1.29811942 1.30224615 1.3063728  1.31049938 1.31462586 1.31875227
 1.32287858 1.32700481 1.33113094 1.33525697 1.33938291 1.34350875
 1.34763449 1.35176012 1.35588565 1.36001107 1.36413638 1.36826157
 1.37238666 1.37651162 1.38063647 1.3847612  1.38888581 1.39301029
 1.39713465 1.40125888 1.40538298 1.40950695 1.41363079 1.41775449
 1.42187806 1.42600149 1.43012478 1.43424793 1.43837094 1.4424938
 1.44661651 1.45073908 1.45486151 1.45898378 1.4631059  1.46722786
 1.47134967 1.47547133 1.47959282 1.48371416 1.48783534 1.49195636
 1.49607721 1.5001979  1.50431842 1.50843878 1.51255896 1.51667898
 1.52079883 1.5249185  1.52903801 1.53315733 1.53727649 1.54139546
 1.54551426 1.54963288 1.55375131 1.55786957 1.56198764 1.56610553
 1.57022324 1.57434076 1.57845809 1.58257523 1.58669219 1.59080896
 1.59492553 1.59904191 1.6031581  1.6072741  1.6113899  1.6155055
 1.61962091 1.62373612 1.62785113 1.63196595 1.63608056 1.64019497
 1.64430917 1.64842318 1.65253698 1.65665057 1.66076396 1.66487714
 1.66899012 1.67310289 1.67721544 1.68132779 1.68543993 1.68955185
 1.69366357 1.69777507 1.70188635 1.70599742 1.71010828 1.71421892
 1.71832934 1.72243954 1.72654953 1.7306593  1.73476885 1.73887817
 1.74298728 1.74709616 1.75120482 1.75531326 1.75942148 1.76352947
 1.76763723 1.77174477 1.77585208 1.77995917 1.78406602 1.78817265
 1.79227905 1.79638522 1.80049116 1.80459687 1.80870234 1.81280759
 1.8169126  1.82101738 1.82512192 1.82922623 1.83333031 1.83743415
 1.84153775 1.84564112 1.84974425 1.85384714 1.8579498  1.86205221
 1.86615439 1.87025632 1.87435802 1.87845947 1.88256068 1.88666166
 1.89076238 1.89486287 1.89896311 1.90306311 1.90716286 1.91126237
 1.91536164 1.91946065 1.92355942 1.92765795 1.93175623 1.93585425
 1.93995204 1.94404957 1.94814685 1.95224389 1.95634067 1.9604372
 1.96453348 1.96862952 1.9727253  1.97682082 1.9809161  1.98501112
 1.98910589 1.9932004  1.99729466 2.00138867 2.00548242 2.00957591
 2.01366915 2.01776214 2.02185486 2.02594733 2.03003955 2.0341315
 2.0382232  2.04231463 2.04640581 2.05049673 2.05458739 2.05867779
 2.06276793 2.06685781 2.07094743 2.07503678 2.07912588 2.08321471
 2.08730328 2.09139159 2.09547963 2.09956741 2.10365493 2.10774218
 2.11182917 2.11591589 2.12000235 2.12408854 2.12817446 2.13226012
 2.13634552 2.14043064 2.1445155  2.14860009 2.15268442 2.15676847
 2.16085226 2.16493578 2.16901903 2.17310201 2.17718472 2.18126716
 2.18534933 2.18943123 2.19351286 2.19759422 2.2016753  2.20575612
 2.20983666 2.21391693 2.21799693 2.22207666 2.22615611 2.23023529
 2.23431419 2.23839282 2.24247118 2.24654926 2.25062707 2.2547046
 2.25878186 2.26285884 2.26693555 2.27101197 2.27508813 2.279164
 2.2832396  2.28731493 2.29138997 2.29546474 2.29953923 2.30361344
 2.30768737 2.31176103 2.3158344  2.3199075  2.32398031 2.32805285
 2.33212511 2.33619708 2.34026878 2.34434019 2.34841133 2.35248218
 2.35655276 2.36062305 2.36469306 2.36876278 2.37283223 2.37690139
 2.38097027 2.38503886 2.38910718 2.39317521 2.39724295 2.40131042
 2.40537759 2.40944449 2.4135111  2.41757742 2.42164346 2.42570922
 2.42977468 2.43383987 2.43790476 2.44196938 2.4460337  2.45009774
 2.45416149 2.45822496 2.46228813 2.46635102 2.47041363 2.47447594
 2.47853797 2.48259971 2.48666116 2.49072232 2.4947832  2.49884378
 2.50290408 2.50696408 2.5110238  2.51508323 2.51914236 2.52320121
 2.52725977 2.53131803 2.53537601 2.53943369 2.54349108 2.54754819
 2.551605   2.55566151 2.55971774 2.56377368 2.56782932 2.57188467
 2.57593973 2.57999449 2.58404896 2.58810314 2.59215703 2.59621062
 2.60026392 2.60431692 2.60836963 2.61242205 2.61647417 2.62052599
 2.62457752 2.62862876 2.6326797  2.63673035 2.6407807  2.64483076
 2.64888052 2.65292998 2.65697915 2.66102802 2.66507659 2.66912487
 2.67317285 2.67722053 2.68126792 2.68531501 2.6893618  2.69340829
 2.69745449 2.70150039 2.70554599 2.70959129 2.71363629 2.717681
 2.7217254  2.72576951 2.72981331 2.73385682 2.73790003 2.74194294
 2.74598555 2.75002786 2.75406986 2.75811157 2.76215298 2.76619409
 2.77023489 2.7742754  2.7783156  2.78235551 2.78639511 2.79043441
 2.7944734  2.7985121  2.80255049 2.80658859 2.81062638 2.81466386
 2.81870105 2.82273793 2.82677451 2.83081078 2.83484676 2.83888242
 2.84291779 2.84695285 2.85098761 2.85502206 2.85905621 2.86309006
 2.8671236  2.87115683 2.87518977 2.87922239 2.88325471 2.88728673
 2.89131844 2.89534985 2.89938095 2.90341174 2.90744223 2.91147241
 2.91550229 2.91953186 2.92356112 2.92759008 2.93161873 2.93564707
 2.93967511 2.94370284 2.94773026 2.95175737 2.95578418 2.95981068
 2.96383687 2.96786275 2.97188833 2.97591359 2.97993855 2.9839632
 2.98798754 2.99201157 2.9960353  3.00005871 3.00408181 3.00810461
 3.0121271  3.01614927 3.02017114 3.02419269 3.02821394 3.03223488
 3.0362555  3.04027582 3.04429582 3.04831552 3.0523349  3.05635397
 3.06037273 3.06439118 3.06840932 3.07242715 3.07644467 3.08046187
 3.08447876 3.08849534 3.09251161 3.09652756 3.10054321 3.10455854
 3.10857356 3.11258826 3.11660265 3.12061673 3.1246305  3.12864395
 3.13265709 3.13666992 3.14068243 3.14469463 3.14870651 3.15271808
 3.15672934 3.16074028 3.16475091 3.16876122 3.17277122 3.1767809
 3.18079027 3.18479932 3.18880806 3.19281648 3.19682459 3.20083238
 3.20483986 3.20884702 3.21285386 3.21686039 3.2208666  3.2248725
 3.22887808 3.23288334 3.23688829 3.24089292 3.24489723 3.24890123
 3.2529049  3.25690827 3.26091131 3.26491404 3.26891645 3.27291854
 3.27692031 3.28092177 3.2849229  3.28892372 3.29292422 3.29692441
 3.30092427 3.30492381 3.30892304 3.31292195 3.31692054 3.32091881
 3.32491676 3.32891439 3.3329117  3.33690869 3.34090536 3.34490171
 3.34889775 3.35289346 3.35688885 3.36088392 3.36487867 3.3688731
 3.37286721 3.376861   3.38085447 3.38484762 3.38884044 3.39283295
 3.39682513 3.40081699 3.40480854 3.40879975 3.41279065 3.41678123
 3.42077148 3.42476141 3.42875102 3.43274031 3.43672927 3.44071791
 3.44470623 3.44869423 3.4526819  3.45666925 3.46065628 3.46464298
 3.46862936 3.47261542 3.47660115 3.48058656 3.48457165 3.48855641
 3.49254085 3.49652496 3.50050875 3.50449222 3.50847536 3.51245817
 3.51644066 3.52042283 3.52440467 3.52838619 3.53236738 3.53634825
 3.54032879 3.544309   3.54828889 3.55226846 3.5562477  3.56022661
 3.5642052  3.56818346 3.57216139 3.576139   3.58011628 3.58409324
 3.58806987 3.59204617 3.59602214 3.59999779 3.60397311 3.60794811
 3.61192277 3.61589711 3.61987113 3.62384481 3.62781817 3.6317912
 3.6357639  3.63973627 3.64370831 3.64768003 3.65165142 3.65562248
 3.65959321 3.66356361 3.66753369 3.67150343 3.67547285 3.67944193
 3.68341069 3.68737912 3.69134722 3.69531499 3.69928243 3.70324954
 3.70721632 3.71118277 3.71514889 3.71911468 3.72308014 3.72704527
 3.73101007 3.73497454 3.73893868 3.74290249 3.74686596 3.75082911
 3.75479193 3.75875441 3.76271656 3.76667838 3.77063987 3.77460103
 3.77856186 3.78252235 3.78648251 3.79044235 3.79440184 3.79836101
 3.80231985 3.80627835 3.81023652 3.81419435 3.81815186 3.82210903
 3.82606587 3.83002237 3.83397855 3.83793439 3.84188989 3.84584507
 3.84979991 3.85375441 3.85770858 3.86166242 3.86561593 3.8695691
 3.87352193 3.87747443 3.8814266  3.88537844 3.88932994 3.8932811
 3.89723193 3.90118242 3.90513258 3.90908241 3.9130319  3.91698105
 3.92092987 3.92487836 3.92882651 3.93277432 3.9367218  3.94066894
 3.94461575 3.94856221 3.95250835 3.95645415 3.96039961 3.96434473
 3.96828952 3.97223397 3.97617809 3.98012187 3.98406531 3.98800841
 3.99195118 3.99589361 3.9998357  4.00377746 4.00771888 4.01165996
 4.0156007  4.01954111 4.02348118 4.02742091 4.0313603  4.03529935
 4.03923807 4.04317644 4.04711448 4.05105218 4.05498954 4.05892657
 4.06286325 4.0667996  4.0707356  4.07467127 4.0786066  4.08254159
 4.08647624 4.09041055 4.09434452 4.09827815 4.10221144 4.10614439
 4.110077   4.11400927 4.1179412  4.12187279 4.12580404 4.12973495
 4.13366552 4.13759575 4.14152564 4.14545518 4.14938439 4.15331325
 4.15724178 4.16116996 4.1650978  4.1690253  4.17295246 4.17687928
 4.18080575 4.18473189 4.18865768 4.19258313 4.19650824 4.200433
 4.20435742 4.2082815  4.21220524 4.21612864 4.22005169 4.2239744
 4.22789677 4.2318188  4.23574048 4.23966182 4.24358281 4.24750347
 4.25142377 4.25534374 4.25926336 4.26318264 4.26710158 4.27102017
 4.27493841 4.27885632 4.28277387 4.28669109 4.29060796 4.29452449
 4.29844067 4.3023565  4.306272   4.31018714 4.31410195 4.3180164
 4.32193051 4.32584428 4.3297577  4.33367078 4.33758351 4.3414959
 4.34540794 4.34931963 4.35323098 4.35714198]
t =  [1.05841030e+09 1.05841034e+09 1.05841038e+09 1.05841042e+09
 1.05841046e+09 1.05841050e+09 1.05841054e+09 1.05841058e+09
 1.05841063e+09 1.05841067e+09 1.05841071e+09 1.05841075e+09
 1.05841079e+09 1.05841083e+09 1.05841087e+09 1.05841091e+09
 1.05841095e+09 1.05841099e+09 1.05841103e+09 1.05841108e+09
 1.05841112e+09 1.05841116e+09 1.05841120e+09 1.05841124e+09
 1.05841128e+09 1.05841132e+09 1.05841136e+09 1.05841140e+09
 1.05841144e+09 1.05841148e+09 1.05841153e+09 1.05841157e+09
 1.05841161e+09 1.05841165e+09 1.05841169e+09 1.05841173e+09
 1.05841177e+09 1.05841181e+09 1.05841185e+09 1.05841189e+09
 1.05841193e+09 1.05841198e+09 1.05841202e+09 1.05841206e+09
 1.05841210e+09 1.05841214e+09 1.05841218e+09 1.05841222e+09
 1.05841226e+09 1.05841230e+09 1.05841234e+09 1.05841238e+09
 1.05841243e+09 1.05841247e+09 1.05841251e+09 1.05841255e+09
 1.05841259e+09 1.05841263e+09 1.05841267e+09 1.05841271e+09
 1.05841275e+09 1.05841279e+09 1.05841283e+09 1.05841288e+09
 1.05841292e+09 1.05841296e+09 1.05841300e+09 1.05841304e+09
 1.05841308e+09 1.05841312e+09 1.05841316e+09 1.05841320e+09
 1.05841324e+09 1.05841329e+09 1.05841333e+09 1.05841337e+09
 1.05841341e+09 1.05841345e+09 1.05841349e+09 1.05841353e+09
 1.05841357e+09 1.05841361e+09 1.05841365e+09 1.05841369e+09
 1.05841374e+09 1.05841378e+09 1.05841382e+09 1.05841386e+09
 1.05841390e+09 1.05841394e+09 1.05841398e+09 1.05841402e+09
 1.05841406e+09 1.05841410e+09 1.05841414e+09 1.05841419e+09
 1.05841423e+09 1.05841427e+09 1.05841431e+09 1.05841435e+09
 1.05841439e+09 1.05841443e+09 1.05841447e+09 1.05841451e+09
 1.05841455e+09 1.05841459e+09 1.05841464e+09 1.05841468e+09
 1.05841472e+09 1.05841476e+09 1.05841480e+09 1.05841484e+09
 1.05841488e+09 1.05841492e+09 1.05841496e+09 1.05841500e+09
 1.05841504e+09 1.05841509e+09 1.05841513e+09 1.05841517e+09
 1.05841521e+09 1.05841525e+09 1.05841529e+09 1.05841533e+09
 1.05841537e+09 1.05841541e+09 1.05841545e+09 1.05841549e+09
 1.05841554e+09 1.05841558e+09 1.05841562e+09 1.05841566e+09
 1.05841570e+09 1.05841574e+09 1.05841578e+09 1.05841582e+09
 1.05841586e+09 1.05841590e+09 1.05841594e+09 1.05841599e+09
 1.05841603e+09 1.05841607e+09 1.05841611e+09 1.05841615e+09
 1.05841619e+09 1.05841623e+09 1.05841627e+09 1.05841631e+09
 1.05841635e+09 1.05841639e+09 1.05841644e+09 1.05841648e+09
 1.05841652e+09 1.05841656e+09 1.05841660e+09 1.05841664e+09
 1.05841668e+09 1.05841672e+09 1.05841676e+09 1.05841680e+09
 1.05841684e+09 1.05841689e+09 1.05841693e+09 1.05841697e+09
 1.05841701e+09 1.05841705e+09 1.05841709e+09 1.05841713e+09
 1.05841717e+09 1.05841721e+09 1.05841725e+09 1.05841729e+09
 1.05841734e+09 1.05841738e+09 1.05841742e+09 1.05841746e+09
 1.05841750e+09 1.05841754e+09 1.05841758e+09 1.05841762e+09
 1.05841766e+09 1.05841770e+09 1.05841774e+09 1.05841779e+09
 1.05841783e+09 1.05841787e+09 1.05841791e+09 1.05841795e+09
 1.05841799e+09 1.05841803e+09 1.05841807e+09 1.05841811e+09
 1.05841815e+09 1.05841819e+09 1.05841824e+09 1.05841828e+09
 1.05841832e+09 1.05841836e+09 1.05841840e+09 1.05841844e+09
 1.05841848e+09 1.05841852e+09 1.05841856e+09 1.05841860e+09
 1.05841865e+09 1.05841869e+09 1.05841873e+09 1.05841877e+09
 1.05841881e+09 1.05841885e+09 1.05841889e+09 1.05841893e+09
 1.05841897e+09 1.05841901e+09 1.05841905e+09 1.05841910e+09
 1.05841914e+09 1.05841918e+09 1.05841922e+09 1.05841926e+09
 1.05841930e+09 1.05841934e+09 1.05841938e+09 1.05841942e+09
 1.05841946e+09 1.05841950e+09 1.05841955e+09 1.05841959e+09
 1.05841963e+09 1.05841967e+09 1.05841971e+09 1.05841975e+09
 1.05841979e+09 1.05841983e+09 1.05841987e+09 1.05841991e+09
 1.05841995e+09 1.05842000e+09 1.05842004e+09 1.05842008e+09
 1.05842012e+09 1.05842016e+09 1.05842020e+09 1.05842024e+09
 1.05842028e+09 1.05842032e+09 1.05842036e+09 1.05842040e+09
 1.05842045e+09 1.05842049e+09 1.05842053e+09 1.05842057e+09
 1.05842061e+09 1.05842065e+09 1.05842069e+09 1.05842073e+09
 1.05842077e+09 1.05842081e+09 1.05842085e+09 1.05842090e+09
 1.05842094e+09 1.05842098e+09 1.05842102e+09 1.05842106e+09
 1.05842110e+09 1.05842114e+09 1.05842118e+09 1.05842122e+09
 1.05842126e+09 1.05842130e+09 1.05842135e+09 1.05842139e+09
 1.05842143e+09 1.05842147e+09 1.05842151e+09 1.05842155e+09
 1.05842159e+09 1.05842163e+09 1.05842167e+09 1.05842171e+09
 1.05842175e+09 1.05842180e+09 1.05842184e+09 1.05842188e+09
 1.05842192e+09 1.05842196e+09 1.05842200e+09 1.05842204e+09
 1.05842208e+09 1.05842212e+09 1.05842216e+09 1.05842220e+09
 1.05842225e+09 1.05842229e+09 1.05842233e+09 1.05842237e+09
 1.05842241e+09 1.05842245e+09 1.05842249e+09 1.05842253e+09
 1.05842257e+09 1.05842261e+09 1.05842265e+09 1.05842270e+09
 1.05842274e+09 1.05842278e+09 1.05842282e+09 1.05842286e+09
 1.05842290e+09 1.05842294e+09 1.05842298e+09 1.05842302e+09
 1.05842306e+09 1.05842310e+09 1.05842315e+09 1.05842319e+09
 1.05842323e+09 1.05842327e+09 1.05842331e+09 1.05842335e+09
 1.05842339e+09 1.05842343e+09 1.05842347e+09 1.05842351e+09
 1.05842355e+09 1.05842360e+09 1.05842364e+09 1.05842368e+09
 1.05842372e+09 1.05842376e+09 1.05842380e+09 1.05842384e+09
 1.05842388e+09 1.05842392e+09 1.05842396e+09 1.05842401e+09
 1.05842405e+09 1.05842409e+09 1.05842413e+09 1.05842417e+09
 1.05842421e+09 1.05842425e+09 1.05842429e+09 1.05842433e+09
 1.05842437e+09 1.05842441e+09 1.05842446e+09 1.05842450e+09
 1.05842454e+09 1.05842458e+09 1.05842462e+09 1.05842466e+09
 1.05842470e+09 1.05842474e+09 1.05842478e+09 1.05842482e+09
 1.05842486e+09 1.05842491e+09 1.05842495e+09 1.05842499e+09
 1.05842503e+09 1.05842507e+09 1.05842511e+09 1.05842515e+09
 1.05842519e+09 1.05842523e+09 1.05842527e+09 1.05842531e+09
 1.05842536e+09 1.05842540e+09 1.05842544e+09 1.05842548e+09
 1.05842552e+09 1.05842556e+09 1.05842560e+09 1.05842564e+09
 1.05842568e+09 1.05842572e+09 1.05842576e+09 1.05842581e+09
 1.05842585e+09 1.05842589e+09 1.05842593e+09 1.05842597e+09
 1.05842601e+09 1.05842605e+09 1.05842609e+09 1.05842613e+09
 1.05842617e+09 1.05842621e+09 1.05842626e+09 1.05842630e+09
 1.05842634e+09 1.05842638e+09 1.05842642e+09 1.05842646e+09
 1.05842650e+09 1.05842654e+09 1.05842658e+09 1.05842662e+09
 1.05842666e+09 1.05842671e+09 1.05842675e+09 1.05842679e+09
 1.05842683e+09 1.05842687e+09 1.05842691e+09 1.05842695e+09
 1.05842699e+09 1.05842703e+09 1.05842707e+09 1.05842711e+09
 1.05842716e+09 1.05842720e+09 1.05842724e+09 1.05842728e+09
 1.05842732e+09 1.05842736e+09 1.05842740e+09 1.05842744e+09
 1.05842748e+09 1.05842752e+09 1.05842756e+09 1.05842761e+09
 1.05842765e+09 1.05842769e+09 1.05842773e+09 1.05842777e+09
 1.05842781e+09 1.05842785e+09 1.05842789e+09 1.05842793e+09
 1.05842797e+09 1.05842801e+09 1.05842806e+09 1.05842810e+09
 1.05842814e+09 1.05842818e+09 1.05842822e+09 1.05842826e+09
 1.05842830e+09 1.05842834e+09 1.05842838e+09 1.05842842e+09
 1.05842846e+09 1.05842851e+09 1.05842855e+09 1.05842859e+09
 1.05842863e+09 1.05842867e+09 1.05842871e+09 1.05842875e+09
 1.05842879e+09 1.05842883e+09 1.05842887e+09 1.05842891e+09
 1.05842896e+09 1.05842900e+09 1.05842904e+09 1.05842908e+09
 1.05842912e+09 1.05842916e+09 1.05842920e+09 1.05842924e+09
 1.05842928e+09 1.05842932e+09 1.05842937e+09 1.05842941e+09
 1.05842945e+09 1.05842949e+09 1.05842953e+09 1.05842957e+09
 1.05842961e+09 1.05842965e+09 1.05842969e+09 1.05842973e+09
 1.05842977e+09 1.05842982e+09 1.05842986e+09 1.05842990e+09
 1.05842994e+09 1.05842998e+09 1.05843002e+09 1.05843006e+09
 1.05843010e+09 1.05843014e+09 1.05843018e+09 1.05843022e+09
 1.05843027e+09 1.05843031e+09 1.05843035e+09 1.05843039e+09
 1.05843043e+09 1.05843047e+09 1.05843051e+09 1.05843055e+09
 1.05843059e+09 1.05843063e+09 1.05843067e+09 1.05843072e+09
 1.05843076e+09 1.05843080e+09 1.05843084e+09 1.05843088e+09
 1.05843092e+09 1.05843096e+09 1.05843100e+09 1.05843104e+09
 1.05843108e+09 1.05843112e+09 1.05843117e+09 1.05843121e+09
 1.05843125e+09 1.05843129e+09 1.05843133e+09 1.05843137e+09
 1.05843141e+09 1.05843145e+09 1.05843149e+09 1.05843153e+09
 1.05843157e+09 1.05843162e+09 1.05843166e+09 1.05843170e+09
 1.05843174e+09 1.05843178e+09 1.05843182e+09 1.05843186e+09
 1.05843190e+09 1.05843194e+09 1.05843198e+09 1.05843202e+09
 1.05843207e+09 1.05843211e+09 1.05843215e+09 1.05843219e+09
 1.05843223e+09 1.05843227e+09 1.05843231e+09 1.05843235e+09
 1.05843239e+09 1.05843243e+09 1.05843247e+09 1.05843252e+09
 1.05843256e+09 1.05843260e+09 1.05843264e+09 1.05843268e+09
 1.05843272e+09 1.05843276e+09 1.05843280e+09 1.05843284e+09
 1.05843288e+09 1.05843292e+09 1.05843297e+09 1.05843301e+09
 1.05843305e+09 1.05843309e+09 1.05843313e+09 1.05843317e+09
 1.05843321e+09 1.05843325e+09 1.05843329e+09 1.05843333e+09
