name =JUICE_ROI_CAL_3_0_04
flyby =  ['2033 JUL 16 02:11:44', '2033 JUL 17 02:11:44']
Observation TW =  <SpiceCell dtype = 1, length = 0, size = 2200, card = 2, is_set = 1, adjust = 0, init = 1, base = 2554797990256, data = 2554797990304>
Res(t) =  [0.29095977 0.29110087 0.2912606  0.29143829 0.29163335 0.29184519
 0.29207326 0.29231703 0.29257599 0.29284966 0.29313758 0.29343929
 0.29375439 0.29408245 0.29442309 0.29477593 0.29514062 0.2955168
 0.29590416 0.29630236 0.2967111  0.29713009 0.29755905 0.2979977
 0.29844577 0.29890302 0.2993692  0.29984407 0.30032741 0.300819
 0.30131863 0.30182609 0.30234119 0.30286374 0.30339355 0.30393044
 0.30447424 0.3050248  0.30558193 0.3061455  0.30671534 0.30729132
 0.30787328 0.3084611  0.30905465 0.30965378 0.31025838 0.31086833
 0.3114835  0.31210379 0.31272908 0.31335927 0.31399425 0.31463392
 0.31527818 0.31592694 0.3165801  0.31723757 0.31789927 0.3185651
 0.31923499 0.31990885 0.32058661 0.32126819 0.32195351 0.3226425
 0.32333509 0.32403121 0.32473079 0.32543378 0.32614009 0.32684968
 0.32756248 0.32827843 0.32899748 0.32971956 0.33044463 0.33117262
 0.3319035  0.33263719 0.33337367 0.33411286 0.33485474 0.33559925
 0.33634635 0.33709599 0.33784813 0.33860273 0.33935974 0.34011913
 0.34088086 0.34164488 0.34241116 0.34317966 0.34395035 0.34472319
 0.34549814 0.34627517 0.34705426 0.34783536 0.34861844 0.34940348
 0.35019044 0.35097929 0.35177001 0.35256256 0.35335692 0.35415306
 0.35495095 0.35575056 0.35655188 0.35735487 0.3581595  0.35896577
 0.35977364 0.36058308 0.36139408 0.36220661 0.36302065 0.36383618
 0.36465318 0.36547163 0.3662915  0.36711277 0.36793544 0.36875947
 0.36958484 0.37041155 0.37123957 0.37206888 0.37289947 0.37373131
 0.3745644  0.3753987  0.37623422 0.37707093 0.37790881 0.37874786
 0.37958805 0.38042937 0.3812718  0.38211533 0.38295995 0.38380565
 0.3846524  0.38550019 0.38634902 0.38719887 0.38804972 0.38890156
 0.38975438 0.39060818 0.39146292 0.39231862 0.39317524 0.39403279
 0.39489124 0.39575059 0.39661083 0.39747195 0.39833394 0.39919678
 0.40006046 0.40092498 0.40179033 0.40265649 0.40352346 0.40439122
 0.40525977 0.4061291  0.4069992  0.40787005 0.40874166 0.40961401
 0.4104871  0.41136091 0.41223544 0.41311067 0.41398661 0.41486324
 0.41574056 0.41661855 0.41749722 0.41837654 0.41925652 0.42013715
 0.42101842 0.42190033 0.42278286 0.42366601 0.42454978 0.42543415
 0.42631912 0.42720468 0.42809083 0.42897757 0.42986487 0.43075275
 0.43164119 0.43253018 0.43341973 0.43430982 0.43520044 0.43609161
 0.4369833  0.43787551 0.43876824 0.43966148 0.44055523 0.44144948
 0.44234423 0.44323946 0.44413519 0.44503139 0.44592807 0.44682522
 0.44772284 0.44862092 0.44951946 0.45041845 0.45131788 0.45221777
 0.45311809 0.45401885 0.45492003 0.45582165 0.45672369 0.45762614
 0.45852901 0.45943229 0.46033598 0.46124006 0.46214455 0.46304943
 0.4639547  0.46486036 0.46576641 0.46667283 0.46757963 0.4684868
 0.46939434 0.47030224 0.47121051 0.47211914 0.47302812 0.47393746
 0.47484714 0.47575717 0.47666754 0.47757825 0.4784893  0.47940068
 0.48031239 0.48122442 0.48213678 0.48304947 0.48396247 0.48487578
 0.48578941 0.48670335 0.48761759 0.48853214 0.48944699 0.49036214
 0.49127758 0.49219332 0.49310935 0.49402567 0.49494227 0.49585916
 0.49677632 0.49769377 0.49861149 0.49952948 0.50044775 0.50136628
 0.50228508 0.50320414 0.50412347 0.50504305 0.5059629  0.50688299
 0.50780334 0.50872395 0.50964479 0.51056589 0.51148723 0.51240881
 0.51333064 0.5142527  0.51517499 0.51609752 0.51702029 0.51794328
 0.5188665  0.51978995 0.52071363 0.52163752 0.52256164 0.52348597
 0.52441053 0.5253353  0.52626028 0.52718547 0.52811088 0.52903649
 0.52996231 0.53088833 0.53181456 0.53274099 0.53366762 0.53459445
 0.53552147 0.53644869 0.53737611 0.53830371 0.53923151 0.54015949
 0.54108767 0.54201603 0.54294457 0.5438733  0.54480221 0.5457313
 0.54666056 0.54759001 0.54851963 0.54944943 0.5503794  0.55130954
 0.55223985 0.55317033 0.55410098 0.55503179 0.55596277 0.55689392
 0.55782522 0.55875669 0.55968832 0.56062011 0.56155205 0.56248416
 0.56341641 0.56434882 0.56528139 0.5662141  0.56714697 0.56807999
 0.56901315 0.56994646 0.57087992 0.57181352 0.57274727 0.57368116
 0.57461519 0.57554936 0.57648367 0.57741812 0.57835271 0.57928743
 0.58022229 0.58115728 0.58209241 0.58302767 0.58396306 0.58489858
 0.58583423 0.58677001 0.58770591 0.58864194 0.5895781  0.59051439
 0.59145079 0.59238732 0.59332397 0.59426075 0.59519764 0.59613465
 0.59707178 0.59800903 0.5989464  0.59988388 0.60082147 0.60175918
 0.602697   0.60363494 0.60457299 0.60551115 0.60644941 0.60738779
 0.60832628 0.60926487 0.61020357 0.61114238 0.61208129 0.61302031
 0.61395943 0.61489865 0.61583798 0.61677741 0.61771693 0.61865656
 0.61959629 0.62053612 0.62147604 0.62241607 0.62335619 0.6242964
 0.62523671 0.62617712 0.62711762 0.62805821 0.62899889 0.62993967
 0.63088054 0.6318215  0.63276255 0.63370368 0.63464491 0.63558623
 0.63652763 0.63746912 0.63841069 0.63935236 0.6402941  0.64123593
 0.64217785 0.64311985 0.64406193 0.64500409 0.64594633 0.64688866
 0.64783107 0.64877355 0.64971612 0.65065876 0.65160148 0.65254428
 0.65348716 0.65443011 0.65537314 0.65631625 0.65725943 0.65820268
 0.65914601 0.66008941 0.66103289 0.66197644 0.66292006 0.66386375
 0.66480751 0.66575134 0.66669524 0.66763921 0.66858325 0.66952736
 0.67047154 0.67141578 0.6723601  0.67330448 0.67424892 0.67519343
 0.67613801 0.67708265 0.67802735 0.67897212 0.67991695 0.68086185
 0.68180681 0.68275183 0.68369691 0.68464205 0.68558726 0.68653252
 0.68747785 0.68842323 0.68936868 0.69031418 0.69125974 0.69220536
 0.69315104 0.69409677 0.69504256 0.69598841 0.69693431 0.69788027
 0.69882629 0.69977236 0.70071848 0.70166466 0.70261089 0.70355718
 0.70450352 0.70544991 0.70639635 0.70734285 0.7082894  0.709236
 0.71018265 0.71112935 0.7120761  0.7130229  0.71396975 0.71491665
 0.7158636  0.7168106  0.71775764 0.71870474 0.71965188 0.72059907
 0.7215463  0.72249359 0.72344091 0.72710734 0.72805378 0.72900027
 0.72994681 0.7308934  0.73184004 0.73278672 0.73373345 0.73468022
 0.73562704 0.73657391 0.73752082 0.73846778 0.73941478 0.74036182
 0.74130892 0.74225605 0.74320323 0.74415045 0.74509771 0.74604502
 0.74699237 0.74793976 0.74888719 0.74983467 0.75078218 0.75172974
 0.75267734 0.75362498 0.75457265 0.75552037 0.75646813 0.75741593
 0.75836376 0.75931164 0.76025955 0.7612075  0.76215549 0.76310352
 0.76405158 0.76499969 0.76594783 0.766896   0.76784421 0.76879246
 0.76974075 0.77068907 0.77163742 0.77258582 0.77353424 0.7744827
 0.7754312  0.77637973 0.77732829 0.77827689 0.77922552 0.78017419
 0.78112288 0.78207161 0.78302038 0.78396917 0.784918   0.78586686
 0.78681575 0.78776468 0.78871363 0.78966262 0.79061163 0.79156068
 0.79250976 0.79345887 0.794408   0.79535717 0.79630637 0.7972556
 0.79820485 0.79915414 0.80010345 0.80105279 0.80200216 0.80295156
 0.80390099 0.80485044 0.80579993 0.80674944 0.80769897 0.80864854
 0.80959813 0.81054775 0.81149739 0.81244706 0.81339676 0.81434648
 0.81529623 0.816246   0.8171958  0.81814562 0.81909547 0.82004534
 0.82099524 0.82194516 0.82289511 0.82384508 0.82479508 0.82574509
 0.82669514 0.8276452  0.82859529 0.8295454  0.83049553 0.83144569
 0.83239587 0.83334607 0.8342963  0.83524654 0.83619681 0.8371471
 0.83809741 0.83904774 0.83999809 0.84094847 0.84189886 0.84284928
 0.84379972 0.84475017 0.84570065 0.84665115 0.84760166 0.8485522
 0.84950276 0.85045333 0.85140393 0.85235454 0.85330518 0.85425583
 0.8552065  0.85615719 0.8571079  0.85805863 0.85900937 0.85996013
 0.86091091 0.86186171 0.86281253 0.86376336 0.86471421 0.86566508
 0.86661597 0.86756687 0.86851779 0.86946872 0.87041967 0.87137064
 0.87232163 0.87327263 0.87422364 0.87517467 0.87612572 0.87707678
 0.87802786 0.87897896 0.87993007 0.88088119 0.88183233 0.88278348
 0.88373465 0.88468584 0.88563703 0.88658825 0.88753947 0.88849071
 0.88944197 0.89039323 0.89134452 0.89229581 0.89324712 0.89419844
 0.89514978 0.89610113 0.89705249 0.89800386 0.89895525 0.89990665
 0.90085806 0.90180949 0.90276092 0.90371237 0.90466383 0.90561531
 0.90656679 0.90751829 0.90846979 0.90942131 0.91037285 0.91132439
 0.91227594 0.91322751 0.91417908 0.91513067 0.91608227 0.91703388
 0.91798549 0.91893712 0.91988876 0.92084041 0.92179207 0.92274374
 0.92369542 0.92464711 0.92559881 0.92655052 0.92750224 0.92845397
 0.92940571 0.93035745 0.93130921 0.93226097 0.93321275 0.93416453
 0.93511632 0.93606812 0.93701993 0.93797175 0.93892358 0.93987541
 0.94082725 0.9417791  0.94273096 0.94368283 0.9446347  0.94558659
 0.94653848 0.94749037 0.94844228 0.94939419 0.95034611 0.95129804
 0.95224997 0.95320191 0.95415386 0.95510582 0.95605778 0.95700975
 0.95796172 0.9589137  0.95986569 0.96081769 0.96176969 0.96272169
 0.96367371 0.96462573 0.96557775 0.96652978 0.96748182 0.96843386
 0.96938591 0.97033797 0.97129002 0.97224209 0.97319416 0.97414624
 0.97509832 0.9760504  0.97700249 0.97795459 0.97890669 0.97985879
 0.9808109  0.98176302 0.98271514 0.98366726 0.98461939 0.98557152
 0.98652366 0.9874758  0.98842794 0.98938009 0.99033225 0.9912844
 0.99223656 0.99318873 0.9941409  0.99509307 0.99604524 0.99699742
 0.9979496  0.99890179 0.99985398 1.00080617 1.00175837 1.00271056
 1.00366277 1.00461497 1.00556718 1.00651939 1.0074716  1.00842382
 1.00937603 1.01032825 1.01128048 1.0122327  1.01318493 1.01413716
 1.01508939 1.01604163 1.01699386 1.0179461  1.01889834 1.01985058
 1.02080283 1.02175507 1.02270732 1.02365957 1.02461182 1.02556407
 1.02651632 1.02746858 1.02842084 1.02937309 1.03032535 1.03127761
 1.03222987 1.03318214 1.0341344  1.03508666 1.03603893 1.03699119
 1.03794346 1.03889573 1.03984799 1.04080026 1.04175253 1.0427048
 1.04365707 1.04460934 1.04556161 1.04651388 1.04746615 1.04841842
 1.04937069 1.05032296 1.05127524 1.05222751 1.05317978 1.05413205
 1.05508432 1.05603659 1.05698886 1.05794113 1.05889339 1.05984566
 1.06079793 1.0617502  1.06270246 1.06365473 1.06460699 1.06555926
 1.06651152 1.06746378 1.06841604 1.0693683  1.07032056 1.07127282
 1.07222508 1.07317733 1.07412959 1.07508184 1.07603409 1.07698634
 1.07793859 1.07889084 1.07984308 1.08079533 1.08174757 1.08269981
 1.08365205 1.08460429 1.08555652 1.08650875 1.08746099 1.08841322
 1.08936544 1.09031767 1.09126989 1.09222211 1.09317433 1.09412655
 1.09507876 1.09603097 1.09698318 1.09793539 1.09888759 1.0998398
 1.10079199 1.10174419 1.10269638 1.10364858 1.10460076 1.10555295
 1.10650513 1.10745731 1.10840949 1.10936166 1.11031384 1.111266
 1.11221817 1.11317033 1.11412249 1.11507464 1.1160268  1.11697895
 1.11793109 1.11888323 1.11983537 1.12078751 1.12173964 1.12269177
 1.12364389 1.12459601 1.12554813 1.12650024 1.12745235 1.12840446
 1.12935656 1.13030866 1.13126076 1.13221285 1.13316493 1.13411702
 1.1350691  1.13602117 1.13697324 1.13792531 1.13887737 1.13982943
 1.14078148 1.14173353 1.14268558 1.14363762 1.14458965 1.14554168
 1.14649371 1.14744573 1.14839775 1.14934977 1.15030177 1.15125378
 1.15220578 1.15315777 1.15410976 1.15506175 1.15601373 1.1569657
 1.15791767 1.15886964 1.1598216  1.16077356 1.16172551 1.16267745
 1.16362939 1.16458133 1.16553326 1.16648518 1.1674371  1.16838902
 1.16934093 1.17029283 1.17124473 1.17219662 1.17314851 1.17410039
 1.17505227 1.17600414 1.176956   1.17790786 1.17885972 1.17981156
 1.18076341 1.18171524 1.18266707 1.1836189  1.18457072 1.18552253
 1.18647434 1.18742614 1.18837794 1.18932973]
t =  [1.05840991e+09 1.05840992e+09 1.05840993e+09 1.05840994e+09
 1.05840995e+09 1.05840996e+09 1.05840997e+09 1.05840998e+09
 1.05840999e+09 1.05841000e+09 1.05841001e+09 1.05841002e+09
 1.05841003e+09 1.05841004e+09 1.05841005e+09 1.05841006e+09
 1.05841007e+09 1.05841008e+09 1.05841009e+09 1.05841010e+09
 1.05841011e+09 1.05841012e+09 1.05841013e+09 1.05841014e+09
 1.05841015e+09 1.05841016e+09 1.05841017e+09 1.05841018e+09
 1.05841019e+09 1.05841020e+09 1.05841021e+09 1.05841022e+09
 1.05841023e+09 1.05841024e+09 1.05841025e+09 1.05841026e+09
 1.05841027e+09 1.05841028e+09 1.05841029e+09 1.05841030e+09
 1.05841031e+09 1.05841032e+09 1.05841033e+09 1.05841034e+09
 1.05841035e+09 1.05841036e+09 1.05841037e+09 1.05841038e+09
 1.05841039e+09 1.05841040e+09 1.05841041e+09 1.05841042e+09
 1.05841043e+09 1.05841044e+09 1.05841045e+09 1.05841046e+09
 1.05841047e+09 1.05841048e+09 1.05841049e+09 1.05841050e+09
 1.05841051e+09 1.05841052e+09 1.05841053e+09 1.05841054e+09
 1.05841055e+09 1.05841056e+09 1.05841057e+09 1.05841058e+09
 1.05841059e+09 1.05841060e+09 1.05841061e+09 1.05841062e+09
 1.05841063e+09 1.05841064e+09 1.05841065e+09 1.05841066e+09
 1.05841067e+09 1.05841068e+09 1.05841069e+09 1.05841070e+09
 1.05841071e+09 1.05841072e+09 1.05841073e+09 1.05841074e+09
 1.05841075e+09 1.05841076e+09 1.05841077e+09 1.05841078e+09
 1.05841079e+09 1.05841080e+09 1.05841081e+09 1.05841082e+09
 1.05841083e+09 1.05841084e+09 1.05841085e+09 1.05841086e+09
 1.05841087e+09 1.05841088e+09 1.05841089e+09 1.05841090e+09
 1.05841091e+09 1.05841092e+09 1.05841093e+09 1.05841094e+09
 1.05841095e+09 1.05841096e+09 1.05841097e+09 1.05841098e+09
 1.05841099e+09 1.05841100e+09 1.05841101e+09 1.05841102e+09
 1.05841103e+09 1.05841104e+09 1.05841105e+09 1.05841106e+09
 1.05841107e+09 1.05841108e+09 1.05841109e+09 1.05841110e+09
 1.05841111e+09 1.05841112e+09 1.05841113e+09 1.05841114e+09
 1.05841115e+09 1.05841116e+09 1.05841117e+09 1.05841118e+09
 1.05841119e+09 1.05841120e+09 1.05841121e+09 1.05841122e+09
 1.05841123e+09 1.05841124e+09 1.05841125e+09 1.05841126e+09
 1.05841127e+09 1.05841128e+09 1.05841129e+09 1.05841130e+09
 1.05841131e+09 1.05841132e+09 1.05841133e+09 1.05841134e+09
 1.05841135e+09 1.05841136e+09 1.05841137e+09 1.05841138e+09
 1.05841139e+09 1.05841140e+09 1.05841141e+09 1.05841142e+09
 1.05841143e+09 1.05841144e+09 1.05841145e+09 1.05841146e+09
 1.05841147e+09 1.05841148e+09 1.05841149e+09 1.05841150e+09
 1.05841151e+09 1.05841152e+09 1.05841153e+09 1.05841154e+09
 1.05841155e+09 1.05841156e+09 1.05841157e+09 1.05841158e+09
 1.05841159e+09 1.05841160e+09 1.05841161e+09 1.05841162e+09
 1.05841163e+09 1.05841164e+09 1.05841165e+09 1.05841166e+09
 1.05841167e+09 1.05841168e+09 1.05841169e+09 1.05841170e+09
 1.05841171e+09 1.05841172e+09 1.05841173e+09 1.05841174e+09
 1.05841175e+09 1.05841176e+09 1.05841177e+09 1.05841178e+09
 1.05841179e+09 1.05841180e+09 1.05841181e+09 1.05841182e+09
 1.05841183e+09 1.05841184e+09 1.05841185e+09 1.05841186e+09
 1.05841187e+09 1.05841188e+09 1.05841189e+09 1.05841190e+09
 1.05841191e+09 1.05841192e+09 1.05841193e+09 1.05841194e+09
 1.05841195e+09 1.05841196e+09 1.05841197e+09 1.05841198e+09
 1.05841199e+09 1.05841200e+09 1.05841201e+09 1.05841202e+09
 1.05841203e+09 1.05841204e+09 1.05841205e+09 1.05841206e+09
 1.05841207e+09 1.05841208e+09 1.05841209e+09 1.05841210e+09
 1.05841211e+09 1.05841212e+09 1.05841213e+09 1.05841214e+09
 1.05841215e+09 1.05841216e+09 1.05841217e+09 1.05841218e+09
 1.05841219e+09 1.05841220e+09 1.05841221e+09 1.05841222e+09
 1.05841223e+09 1.05841224e+09 1.05841225e+09 1.05841226e+09
 1.05841227e+09 1.05841228e+09 1.05841229e+09 1.05841230e+09
 1.05841231e+09 1.05841232e+09 1.05841233e+09 1.05841234e+09
 1.05841235e+09 1.05841236e+09 1.05841237e+09 1.05841238e+09
 1.05841239e+09 1.05841240e+09 1.05841241e+09 1.05841242e+09
 1.05841243e+09 1.05841244e+09 1.05841245e+09 1.05841246e+09
 1.05841247e+09 1.05841248e+09 1.05841249e+09 1.05841250e+09
 1.05841251e+09 1.05841252e+09 1.05841253e+09 1.05841254e+09
 1.05841255e+09 1.05841256e+09 1.05841257e+09 1.05841258e+09
 1.05841259e+09 1.05841260e+09 1.05841261e+09 1.05841262e+09
 1.05841263e+09 1.05841264e+09 1.05841265e+09 1.05841266e+09
 1.05841267e+09 1.05841268e+09 1.05841269e+09 1.05841270e+09
 1.05841271e+09 1.05841272e+09 1.05841273e+09 1.05841274e+09
 1.05841275e+09 1.05841276e+09 1.05841277e+09 1.05841278e+09
 1.05841279e+09 1.05841280e+09 1.05841281e+09 1.05841282e+09
 1.05841283e+09 1.05841284e+09 1.05841285e+09 1.05841286e+09
 1.05841287e+09 1.05841288e+09 1.05841289e+09 1.05841290e+09
 1.05841291e+09 1.05841292e+09 1.05841293e+09 1.05841294e+09
 1.05841295e+09 1.05841296e+09 1.05841297e+09 1.05841298e+09
 1.05841299e+09 1.05841300e+09 1.05841301e+09 1.05841302e+09
 1.05841303e+09 1.05841304e+09 1.05841305e+09 1.05841306e+09
 1.05841307e+09 1.05841308e+09 1.05841309e+09 1.05841310e+09
 1.05841311e+09 1.05841312e+09 1.05841313e+09 1.05841314e+09
 1.05841315e+09 1.05841316e+09 1.05841317e+09 1.05841318e+09
 1.05841319e+09 1.05841320e+09 1.05841321e+09 1.05841322e+09
 1.05841323e+09 1.05841324e+09 1.05841325e+09 1.05841326e+09
 1.05841327e+09 1.05841328e+09 1.05841329e+09 1.05841330e+09
 1.05841331e+09 1.05841332e+09 1.05841333e+09 1.05841334e+09
 1.05841335e+09 1.05841336e+09 1.05841337e+09 1.05841338e+09
 1.05841339e+09 1.05841340e+09 1.05841341e+09 1.05841342e+09
 1.05841343e+09 1.05841344e+09 1.05841345e+09 1.05841346e+09
 1.05841347e+09 1.05841348e+09 1.05841349e+09 1.05841350e+09
 1.05841351e+09 1.05841352e+09 1.05841353e+09 1.05841354e+09
 1.05841355e+09 1.05841356e+09 1.05841357e+09 1.05841358e+09
 1.05841359e+09 1.05841360e+09 1.05841361e+09 1.05841362e+09
 1.05841363e+09 1.05841364e+09 1.05841365e+09 1.05841366e+09
 1.05841367e+09 1.05841368e+09 1.05841369e+09 1.05841370e+09
 1.05841371e+09 1.05841372e+09 1.05841373e+09 1.05841374e+09
 1.05841375e+09 1.05841376e+09 1.05841377e+09 1.05841378e+09
 1.05841379e+09 1.05841380e+09 1.05841381e+09 1.05841382e+09
 1.05841383e+09 1.05841384e+09 1.05841385e+09 1.05841386e+09
 1.05841387e+09 1.05841388e+09 1.05841389e+09 1.05841390e+09
 1.05841391e+09 1.05841392e+09 1.05841393e+09 1.05841394e+09
 1.05841395e+09 1.05841396e+09 1.05841397e+09 1.05841398e+09
 1.05841399e+09 1.05841400e+09 1.05841401e+09 1.05841402e+09
 1.05841403e+09 1.05841404e+09 1.05841405e+09 1.05841406e+09
 1.05841407e+09 1.05841408e+09 1.05841409e+09 1.05841410e+09
 1.05841411e+09 1.05841412e+09 1.05841413e+09 1.05841414e+09
 1.05841415e+09 1.05841416e+09 1.05841417e+09 1.05841418e+09
 1.05841419e+09 1.05841420e+09 1.05841421e+09 1.05841422e+09
 1.05841423e+09 1.05841424e+09 1.05841425e+09 1.05841426e+09
 1.05841427e+09 1.05841428e+09 1.05841429e+09 1.05841430e+09
 1.05841431e+09 1.05841432e+09 1.05841433e+09 1.05841434e+09
 1.05841435e+09 1.05841436e+09 1.05841437e+09 1.05841438e+09
 1.05841439e+09 1.05841440e+09 1.05841441e+09 1.05841442e+09
 1.05841443e+09 1.05841444e+09 1.05841446e+09 1.05841447e+09
 1.05841448e+09 1.05841449e+09 1.05841450e+09 1.05841451e+09
 1.05841452e+09 1.05841453e+09 1.05841454e+09 1.05841455e+09
 1.05841456e+09 1.05841457e+09 1.05841458e+09 1.05841459e+09
 1.05841460e+09 1.05841461e+09 1.05841462e+09 1.05841463e+09
 1.05841464e+09 1.05841465e+09 1.05841466e+09 1.05841467e+09
 1.05841468e+09 1.05841469e+09 1.05841470e+09 1.05841471e+09
 1.05841472e+09 1.05841473e+09 1.05841474e+09 1.05841475e+09
 1.05841476e+09 1.05841477e+09 1.05841478e+09 1.05841479e+09
 1.05841480e+09 1.05841481e+09 1.05841482e+09 1.05841483e+09
 1.05841484e+09 1.05841485e+09 1.05841486e+09 1.05841487e+09
 1.05841488e+09 1.05841489e+09 1.05841490e+09 1.05841491e+09
 1.05841492e+09 1.05841493e+09 1.05841494e+09 1.05841495e+09
 1.05841496e+09 1.05841497e+09 1.05841498e+09 1.05841499e+09
 1.05841500e+09 1.05841501e+09 1.05841502e+09 1.05841503e+09
 1.05841504e+09 1.05841505e+09 1.05841506e+09 1.05841507e+09
 1.05841508e+09 1.05841509e+09 1.05841510e+09 1.05841511e+09
 1.05841512e+09 1.05841513e+09 1.05841514e+09 1.05841515e+09
 1.05841516e+09 1.05841517e+09 1.05841518e+09 1.05841519e+09
 1.05841520e+09 1.05841521e+09 1.05841522e+09 1.05841523e+09
 1.05841524e+09 1.05841525e+09 1.05841526e+09 1.05841527e+09
 1.05841528e+09 1.05841529e+09 1.05841530e+09 1.05841531e+09
 1.05841532e+09 1.05841533e+09 1.05841534e+09 1.05841535e+09
 1.05841536e+09 1.05841537e+09 1.05841538e+09 1.05841539e+09
 1.05841540e+09 1.05841541e+09 1.05841542e+09 1.05841543e+09
 1.05841544e+09 1.05841545e+09 1.05841546e+09 1.05841547e+09
 1.05841548e+09 1.05841549e+09 1.05841550e+09 1.05841551e+09
