name =JUICE_ROI_CAL_1_0_04
flyby =  ['2033 APR 06 23:29:30', '2033 APR 07 23:29:30']
Observation TW =  <SpiceCell dtype = 1, length = 0, size = 2800, card = 8, is_set = 1, adjust = 0, init = 1, base = 2554798320224, data = 2554798320272>
Res(t) =  [0.40050782 0.40085308 0.40119987 0.40154818 0.40189798 0.40224927
 0.40260203 0.40295624 0.40331189 0.40366896 0.40402744 0.40438731
 0.40474856 0.40511118 0.40547514 0.40584045 0.40620707 0.40657501
 0.40694425 0.40731477 0.40768656 0.4080596  0.4084339  0.40880942
 0.40918617 0.40956413 0.40994329 0.41032363 0.41070514 0.41108782
 0.41147165 0.41185662 0.41224272 0.41262994 0.41301827 0.41340769
 0.4137982  0.41418979 0.41458245 0.41497616 0.41537092 0.41576672
 0.41616354 0.41656138 0.41696023 0.41736008 0.41776092 0.41816274
 0.41856553 0.41896929 0.419374   0.41977965 0.42018625 0.42059377
 0.42100221 0.42141157 0.42182183 0.42223298 0.42264503 0.42305796
 0.42347175 0.42388642 0.42430194 0.42471831 0.42513553 0.42555358
 0.42597246 0.42639216 0.42681267 0.42723399 0.42765612 0.42807903
 0.42850273 0.42892722 0.42935247 0.4297785  0.43020528 0.43063282
 0.43106111 0.43149014 0.43191991 0.4323504  0.43278162 0.43321356
 0.4336462  0.43407956 0.43451361 0.43494836 0.4353838  0.43581993
 0.43625673 0.4366942  0.43713234 0.43757114 0.4380106  0.43845071
 0.43889147 0.43933287 0.4397749  0.44021757 0.44066086 0.44110477
 0.4415493  0.44199444 0.44244019 0.44288654 0.44333349 0.44378103
 0.44422916 0.44467787 0.44512716 0.44557703 0.44602747 0.44647848
 0.44693004 0.44738217 0.44783485 0.44828808 0.44874185 0.44919617
 0.44965102 0.45010641 0.45056233 0.45101877 0.45147573 0.45193322
 0.45239121 0.45284972 0.45330873 0.45376825 0.45422826 0.45468878
 0.45514978 0.45561127 0.45607325 0.45653571 0.45699865 0.45746206
 0.45792595 0.4583903  0.45885511 0.45932039 0.45978613 0.46025232
 0.46071897 0.46118606 0.4616536  0.46212158 0.46259    0.46305886
 0.46352815 0.46399787 0.46446802 0.46493859 0.46540958 0.465881
 0.46635282 0.46682507 0.46729772 0.46777078 0.46824424 0.46871811
 0.46919238 0.46966704 0.4701421  0.47061755 0.47109338 0.47156961
 0.47204621 0.4725232  0.47300057 0.47347831 0.47395643 0.47443491
 0.47491377 0.47539299 0.47587258 0.47635253 0.47683284 0.4773135
 0.47779452 0.47827589 0.47875762 0.47923969 0.4797221  0.48020486
 0.48068796 0.4811714  0.48165518 0.48213929 0.48262373 0.4831085
 0.48359361 0.48407904 0.48456479 0.48505087 0.48553726 0.48602398
 0.48651101 0.48699836 0.48748601 0.48797398 0.48846226 0.48895084
 0.48943973 0.48992893 0.49041842 0.49090821 0.4913983  0.49188869
 0.49237937 0.49287034 0.4933616  0.49385316 0.49434499 0.49483712
 0.49532952 0.49582221 0.49631518 0.49680843 0.49730195 0.49779575
 0.49828982 0.49878417 0.49927878 0.49977367 0.50026882 0.50076424
 0.50125992 0.50175586 0.50225206 0.50274853 0.50324525 0.50374223
 0.50423946 0.50473694 0.50523468 0.50573267 0.50623091 0.5067294
 0.50722813 0.5077271  0.50822632 0.50872579 0.50922549 0.50972543
 0.51022561 0.51072603 0.51122669 0.51172757 0.51222869 0.51273004
 0.51323163 0.51373344 0.51423547 0.51473774 0.51524023 0.51574294
 0.51624588 0.51674903 0.51725241 0.51775601 0.51825982 0.51876385
 0.5192681  0.51977256 0.52027723 0.52078212 0.52128721 0.52179252
 0.52229803 0.52280375 0.52330968 0.52381581 0.52432215 0.52482869
 0.52533543 0.52584237 0.52634951 0.52685685 0.52736439 0.52787212
 0.52838005 0.52888818 0.5293965  0.52990501 0.53041371 0.5309226
 0.53143168 0.53194095 0.53245041 0.53296005 0.53346988 0.53397989
 0.53449009 0.53500047 0.53551103 0.53602177 0.53653269 0.53704379
 0.53755507 0.53806653 0.53857816 0.53908997 0.53960195 0.5401141
 0.54062643 0.54113893 0.5416516  0.54216444 0.54267745 0.54319062
 0.54370397 0.54421748 0.54473116 0.545245   0.545759   0.54627317
 0.5467875  0.547302   0.54781665 0.54833147 0.54884644 0.54936157
 0.54987686 0.55039231 0.55090791 0.55142367 0.55193958 0.55245565
 0.55297186 0.55348824 0.55400476 0.55452143 0.55503826 0.55555523
 0.55607235 0.55658962 0.55710704 0.55762461 0.55814232 0.55866017
 0.55917817 0.55969631 0.5602146  0.56073303 0.5612516  0.56177031
 0.56228916 0.56280815 0.56332728 0.56384655 0.56436596 0.5648855
 0.56540518 0.565925   0.56644495 0.56696504 0.56748526 0.56800561
 0.56852609 0.56904671 0.56956746 0.57008834 0.57060935 0.57113049
 0.57165176 0.57217315 0.57269468 0.57321633 0.57373811 0.57426001
 0.57478204 0.5753042  0.57582648 0.57634888 0.57687141 0.57739405
 0.57791682 0.57843972 0.57896273 0.57948586 0.58000912 0.58053249
 0.58105598 0.58157959 0.58210332 0.58262716 0.58315113 0.5836752
 0.5841994  0.58472371 0.58524813 0.58577267 0.58629732 0.58682208
 0.58734696 0.58787195 0.58839705 0.58892226 0.58944758 0.58997301
 0.59049855 0.5910242  0.59154996 0.59207583 0.59260181 0.59312789
 0.59365408 0.59418037 0.59470678 0.59523328 0.5957599  0.59628661
 0.59681343 0.59734036 0.59786739 0.59839452 0.59892175 0.59944908
 0.59997652 0.60050406 0.60103169 0.60155943 0.60208727 0.6026152
 0.60314324 0.60367137 0.6041996  0.60472793 0.60525636 0.60578488
 0.6063135  0.60684222 0.60737103 0.60789994 0.60842894 0.60895803
 0.60948722 0.61001651 0.61054588 0.61107535 0.61160491 0.61213456
 0.61266431 0.61319415 0.61372407 0.61425409 0.6147842  0.6153144
 0.61584468 0.61637506 0.61690552 0.61743608 0.61796672 0.61849745
 0.61902826 0.61955916 0.62009015 0.62062123 0.62115239 0.62168364
 0.62221497 0.62274638 0.62327788 0.62380947 0.62434114 0.62487289
 0.62540472 0.62593664 0.62646864 0.62700073 0.62753289 0.62806513
 0.62859746 0.62912987 0.62966236 0.63019492 0.63072757 0.6312603
 0.63179311 0.63232599 0.63285896 0.633392   0.63392512 0.63445832
 0.63499159 0.63552494 0.63605837 0.63659188 0.63712546 0.63765911
 0.63819285 0.63872666 0.63926054 0.6397945  0.64032853 0.64086263
 0.64139681 0.64193107 0.64246539 0.64299979 0.64353426 0.64406881
 0.64460343 0.64513811 0.64567287 0.6462077  0.64674261 0.64727758
 0.64781262 0.64834774 0.64888292 0.64941817 0.6499535  0.65048889
 0.65102435 0.65155988 0.65209547 0.65263114 0.65316687 0.65370267
 0.65423854 0.65477448 0.65531048 0.65584655 0.65638268 0.65691888
 0.65745515 0.65799148 0.65852788 0.65906434 0.65960087 0.66013746
 0.66067412 0.66121084 0.66174762 0.66228447 0.66282138 0.66335836
 0.66389539 0.66443249 0.66496966 0.66550688 0.66604417 0.66658152
 0.66711893 0.6676564  0.66819393 0.66873153 0.66926918 0.6698069
 0.67034467 0.67088251 0.6714204  0.67195835 0.67249637 0.67303444
 0.67357257 0.67411076 0.67464901 0.67518732 0.67572569 0.67626411
 0.67680259 0.67734113 0.67787972 0.67841838 0.67895709 0.67949585
 0.68003467 0.68057355 0.68111249 0.68165148 0.68219053 0.68272963
 0.68326878 0.683808   0.68434726 0.68488658 0.68542596 0.68596539
 0.68650488 0.68704441 0.68758401 0.68812365 0.68866335 0.6892031
 0.68974291 0.69028276 0.69082267 0.69136264 0.69190265 0.69244272
 0.69298284 0.69352301 0.69406323 0.6946035  0.69514383 0.6956842
 0.69622463 0.69676511 0.69730563 0.69784621 0.69838684 0.69892752
 0.69946824 0.70000902 0.70054985 0.70109072 0.70163165 0.70217262
 0.70271364 0.70325471 0.70379583 0.704337   0.70487821 0.70541948
 0.70596079 0.70650215 0.70704355 0.707585   0.70812651 0.70866805
 0.70920965 0.70975129 0.71029297 0.71083471 0.71137649 0.71191831
 0.71246018 0.7130021  0.71354406 0.71408607 0.71462813 0.71517022
 0.71571237 0.71625456 0.71679679 0.71733907 0.71788139 0.71842375
 0.71896616 0.71950862 0.72005111 0.72059365 0.72113624 0.72167887
 0.72222154 0.72276425 0.72330701 0.72384981 0.72439265 0.72493554
 0.72547846 0.72602143 0.72656444 0.7271075  0.72765059 0.72819373
 0.72873691 0.72928013 0.72982339 0.73036669 0.73091003 0.73145342
 0.73199684 0.73254031 0.73308381 0.73362736 0.73417094 0.73471457
 0.73525824 0.73580194 0.73634569 0.73688947 0.7374333  0.73797716
 0.73852106 0.739065   0.73960899 0.74015301 0.74069706 0.74124116
 0.7417853  0.74232947 0.74287368 0.74341793 0.74396222 0.74450654
 0.74505091 0.74559531 0.74613975 0.74668422 0.74722874 0.74777329
 0.74831787 0.7488625  0.74940716 0.74995185 0.75049659 0.75104136
 0.75158616 0.75213101 0.75267589 0.7532208  0.75376575 0.75431074
 0.75485576 0.75540082 0.75594591 0.75649104 0.7570362  0.7575814
 0.75812663 0.7586719  0.7592172  0.75976254 0.76030791 0.76085332
 0.76139876 0.76194423 0.76248974 0.76303529 0.76358086 0.76412647
 0.76467212 0.7652178  0.76576351 0.76630925 0.76685503 0.76740084
 0.76794669 0.76849256 0.76903847 0.76958442 0.77013039 0.7706764
 0.77122244 0.77176852 0.77231462 0.77286076 0.77340693 0.77395313
 0.77449936 0.77504563 0.77559193 0.77613826 0.77668462 0.77723101
 0.77777743 0.77832389 0.77887037 0.77941689 0.77996343 0.78051001
 0.78105662 0.78160326 0.78214993 0.78269663 0.78324336 0.78379012
 0.78433692 0.78488374 0.78543059 0.78597747 0.78652438 0.78707132
 0.7876183  0.7881653  0.78871233 0.78925939 0.78980647 0.79035359
 0.79090074 0.79144792 0.79199512 0.79254236 0.79308962 0.79363691
 0.79418423 0.79473158 0.79527896 0.79582636 0.7963738  0.79692126
 0.79746875 0.79801627 0.79856382 0.79911139 0.79965899 0.80020662
 0.80075428 0.80130197 0.80184968 0.80239742 0.80294519 0.80349298
 0.80404081 0.80458865 0.80513653 0.80568443 0.80623236 0.80678032
 0.8073283  0.80787632 0.80842435 0.80897242 0.80952051 0.81006862
 0.81061676 0.81116493 0.81171313 0.81226135 0.81280959 0.81335787
 0.81390617 0.81445449 0.81500284 0.81555121 0.81609962 0.81664804
 0.81719649 0.81774497 0.81829347 0.818842   0.81939055 0.81993913
 0.82048773 0.82103636 0.82158501 0.82213369 0.82268239 0.82323112
 0.82377987 0.82432864 0.82487744 0.82542627 0.82597512 0.82652399
 0.82707289 0.82762181 0.82817075 0.82871972 0.82926871 0.82981773
 0.83036677 0.83091583 0.83146492 0.83201403 0.83256316 0.83311232
 0.8336615  0.83421071 0.83475993 0.83530919 0.83585846 0.83640776
 0.83695708 0.83750642 0.83805578 0.83860517 0.83915458 0.83970402
 0.84025347 0.84080295 0.84135245 0.84571383 0.84626277 0.84681173
 0.84736072 0.84790973 0.84845877 0.84900783 0.84955691 0.85010601
 0.85065514 0.85120428 0.85175346 0.85230265 0.85285187 0.85340111
 0.85395037 0.85449965 0.85504896 0.85559829 0.85614764 0.85669701
 0.8572464  0.85779582 0.85834526 0.85889472 0.8594442  0.85999371
 0.86054323 0.86109278 0.86164235 0.86219194 0.86274155 0.86329118
 0.86384084 0.86439052 0.86494021 0.86548993 0.86603967 0.86658943
 0.86713921 0.86768902 0.86823884 0.86878868 0.86933855 0.86988844
 0.87043834 0.87098827 0.87153822 0.87208819 0.87263818 0.87318819
 0.87373822 0.87428827 0.87483834 0.87538843 0.87593854 0.87648867
 0.87703882 0.87758899 0.87813918 0.87868939 0.87923962 0.87978987
 0.88034014 0.88089043 0.88144074 0.88199107 0.88254142 0.88309179
 0.88364217 0.88419258 0.88474301 0.88529345 0.88584392 0.8863944
 0.8869449  0.88749542 0.88804597 0.88859653 0.8891471  0.8896977
 0.89024832 0.89079895 0.89134961 0.89190028 0.89245097 0.89300168
 0.89355241 0.89410316 0.89465392 0.89520471 0.89575551 0.89630633
 0.89685717 0.89740803 0.8979589  0.89850979 0.8990607  0.89961163
 0.90016258 0.90071355 0.90126453 0.90181553 0.90236655 0.90291759
 0.90346864 0.90401971 0.9045708  0.90512191 0.90567303 0.90622417
 0.90677533 0.90732651 0.90787771 0.90842892 0.90898015 0.90953139
 0.91008265 0.91063393 0.91118523 0.91173655 0.91228788 0.91283923
 0.91339059 0.91394197 0.91449337 0.91504479 0.91559622 0.91614767
 0.91669914 0.91725062 0.91780212 0.91835363]
t =  [1.04976086e+09 1.04976087e+09 1.04976087e+09 1.04976088e+09
 1.04976088e+09 1.04976089e+09 1.04976089e+09 1.04976090e+09
 1.04976091e+09 1.04976091e+09 1.04976092e+09 1.04976092e+09
 1.04976093e+09 1.04976093e+09 1.04976094e+09 1.04976094e+09
 1.04976095e+09 1.04976095e+09 1.04976096e+09 1.04976096e+09
 1.04976097e+09 1.04976097e+09 1.04976098e+09 1.04976098e+09
 1.04976099e+09 1.04976099e+09 1.04976100e+09 1.04976100e+09
 1.04976101e+09 1.04976101e+09 1.04976102e+09 1.04976102e+09
 1.04976103e+09 1.04976103e+09 1.04976104e+09 1.04976104e+09
 1.04976105e+09 1.04976105e+09 1.04976106e+09 1.04976106e+09
 1.04976107e+09 1.04976107e+09 1.04976108e+09 1.04976108e+09
 1.04976109e+09 1.04976109e+09 1.04976110e+09 1.04976110e+09
 1.04976111e+09 1.04976112e+09 1.04976112e+09 1.04976113e+09
 1.04976113e+09 1.04976114e+09 1.04976114e+09 1.04976115e+09
 1.04976115e+09 1.04976116e+09 1.04976116e+09 1.04976117e+09
 1.04976117e+09 1.04976118e+09 1.04976118e+09 1.04976119e+09
 1.04976119e+09 1.04976120e+09 1.04976120e+09 1.04976121e+09
 1.04976121e+09 1.04976122e+09 1.04976122e+09 1.04976123e+09
 1.04976123e+09 1.04976124e+09 1.04976124e+09 1.04976125e+09
 1.04976125e+09 1.04976126e+09 1.04976126e+09 1.04976127e+09
 1.04976127e+09 1.04976128e+09 1.04976128e+09 1.04976129e+09
 1.04976129e+09 1.04976130e+09 1.04976130e+09 1.04976131e+09
 1.04976131e+09 1.04976132e+09 1.04976132e+09 1.04976133e+09
 1.04976134e+09 1.04976134e+09 1.04976135e+09 1.04976135e+09
 1.04976136e+09 1.04976136e+09 1.04976137e+09 1.04976137e+09
 1.04976138e+09 1.04976138e+09 1.04976139e+09 1.04976139e+09
 1.04976140e+09 1.04976140e+09 1.04976141e+09 1.04976141e+09
 1.04976142e+09 1.04976142e+09 1.04976143e+09 1.04976143e+09
 1.04976144e+09 1.04976144e+09 1.04976145e+09 1.04976145e+09
 1.04976146e+09 1.04976146e+09 1.04976147e+09 1.04976147e+09
 1.04976148e+09 1.04976148e+09 1.04976149e+09 1.04976149e+09
 1.04976150e+09 1.04976150e+09 1.04976151e+09 1.04976151e+09
 1.04976152e+09 1.04976152e+09 1.04976153e+09 1.04976153e+09
 1.04976154e+09 1.04976155e+09 1.04976155e+09 1.04976156e+09
 1.04976156e+09 1.04976157e+09 1.04976157e+09 1.04976158e+09
 1.04976158e+09 1.04976159e+09 1.04976159e+09 1.04976160e+09
 1.04976160e+09 1.04976161e+09 1.04976161e+09 1.04976162e+09
 1.04976162e+09 1.04976163e+09 1.04976163e+09 1.04976164e+09
 1.04976164e+09 1.04976165e+09 1.04976165e+09 1.04976166e+09
 1.04976166e+09 1.04976167e+09 1.04976167e+09 1.04976168e+09
 1.04976168e+09 1.04976169e+09 1.04976169e+09 1.04976170e+09
 1.04976170e+09 1.04976171e+09 1.04976171e+09 1.04976172e+09
 1.04976172e+09 1.04976173e+09 1.04976173e+09 1.04976174e+09
 1.04976174e+09 1.04976175e+09 1.04976176e+09 1.04976176e+09
 1.04976177e+09 1.04976177e+09 1.04976178e+09 1.04976178e+09
 1.04976179e+09 1.04976179e+09 1.04976180e+09 1.04976180e+09
 1.04976181e+09 1.04976181e+09 1.04976182e+09 1.04976182e+09
 1.04976183e+09 1.04976183e+09 1.04976184e+09 1.04976184e+09
 1.04976185e+09 1.04976185e+09 1.04976186e+09 1.04976186e+09
 1.04976187e+09 1.04976187e+09 1.04976188e+09 1.04976188e+09
 1.04976189e+09 1.04976189e+09 1.04976190e+09 1.04976190e+09
 1.04976191e+09 1.04976191e+09 1.04976192e+09 1.04976192e+09
 1.04976193e+09 1.04976193e+09 1.04976194e+09 1.04976194e+09
 1.04976195e+09 1.04976195e+09 1.04976196e+09 1.04976197e+09
 1.04976197e+09 1.04976198e+09 1.04976198e+09 1.04976199e+09
 1.04976199e+09 1.04976200e+09 1.04976200e+09 1.04976201e+09
 1.04976201e+09 1.04976202e+09 1.04976202e+09 1.04976203e+09
 1.04976203e+09 1.04976204e+09 1.04976204e+09 1.04976205e+09
 1.04976205e+09 1.04976206e+09 1.04976206e+09 1.04976207e+09
 1.04976207e+09 1.04976208e+09 1.04976208e+09 1.04976209e+09
 1.04976209e+09 1.04976210e+09 1.04976210e+09 1.04976211e+09
 1.04976211e+09 1.04976212e+09 1.04976212e+09 1.04976213e+09
 1.04976213e+09 1.04976214e+09 1.04976214e+09 1.04976215e+09
 1.04976215e+09 1.04976216e+09 1.04976216e+09 1.04976217e+09
 1.04976217e+09 1.04976218e+09 1.04976219e+09 1.04976219e+09
 1.04976220e+09 1.04976220e+09 1.04976221e+09 1.04976221e+09
 1.04976222e+09 1.04976222e+09 1.04976223e+09 1.04976223e+09
 1.04976224e+09 1.04976224e+09 1.04976225e+09 1.04976225e+09
 1.04976226e+09 1.04976226e+09 1.04976227e+09 1.04976227e+09
 1.04976228e+09 1.04976228e+09 1.04976229e+09 1.04976229e+09
 1.04976230e+09 1.04976230e+09 1.04976231e+09 1.04976231e+09
 1.04976232e+09 1.04976232e+09 1.04976233e+09 1.04976233e+09
 1.04976234e+09 1.04976234e+09 1.04976235e+09 1.04976235e+09
 1.04976236e+09 1.04976236e+09 1.04976237e+09 1.04976237e+09
 1.04976238e+09 1.04976238e+09 1.04976239e+09 1.04976240e+09
 1.04976240e+09 1.04976241e+09 1.04976241e+09 1.04976242e+09
 1.04976242e+09 1.04976243e+09 1.04976243e+09 1.04976244e+09
 1.04976244e+09 1.04976245e+09 1.04976245e+09 1.04976246e+09
 1.04976246e+09 1.04976247e+09 1.04976247e+09 1.04976248e+09
 1.04976248e+09 1.04976249e+09 1.04976249e+09 1.04976250e+09
 1.04976250e+09 1.04976251e+09 1.04976251e+09 1.04976252e+09
 1.04976252e+09 1.04976253e+09 1.04976253e+09 1.04976254e+09
 1.04976254e+09 1.04976255e+09 1.04976255e+09 1.04976256e+09
 1.04976256e+09 1.04976257e+09 1.04976257e+09 1.04976258e+09
 1.04976258e+09 1.04976259e+09 1.04976259e+09 1.04976260e+09
 1.04976261e+09 1.04976261e+09 1.04976262e+09 1.04976262e+09
 1.04976263e+09 1.04976263e+09 1.04976264e+09 1.04976264e+09
 1.04976265e+09 1.04976265e+09 1.04976266e+09 1.04976266e+09
 1.04976267e+09 1.04976267e+09 1.04976268e+09 1.04976268e+09
 1.04976269e+09 1.04976269e+09 1.04976270e+09 1.04976270e+09
 1.04976271e+09 1.04976271e+09 1.04976272e+09 1.04976272e+09
 1.04976273e+09 1.04976273e+09 1.04976274e+09 1.04976274e+09
 1.04976275e+09 1.04976275e+09 1.04976276e+09 1.04976276e+09
 1.04976277e+09 1.04976277e+09 1.04976278e+09 1.04976278e+09
 1.04976279e+09 1.04976279e+09 1.04976280e+09 1.04976280e+09
 1.04976281e+09 1.04976281e+09 1.04976282e+09 1.04976283e+09
 1.04976283e+09 1.04976284e+09 1.04976284e+09 1.04976285e+09
 1.04976285e+09 1.04976286e+09 1.04976286e+09 1.04976287e+09
 1.04976287e+09 1.04976288e+09 1.04976288e+09 1.04976289e+09
 1.04976289e+09 1.04976290e+09 1.04976290e+09 1.04976291e+09
 1.04976291e+09 1.04976292e+09 1.04976292e+09 1.04976293e+09
 1.04976293e+09 1.04976294e+09 1.04976294e+09 1.04976295e+09
 1.04976295e+09 1.04976296e+09 1.04976296e+09 1.04976297e+09
 1.04976297e+09 1.04976298e+09 1.04976298e+09 1.04976299e+09
 1.04976299e+09 1.04976300e+09 1.04976300e+09 1.04976301e+09
 1.04976301e+09 1.04976302e+09 1.04976302e+09 1.04976303e+09
 1.04976304e+09 1.04976304e+09 1.04976305e+09 1.04976305e+09
 1.04976306e+09 1.04976306e+09 1.04976307e+09 1.04976307e+09
 1.04976308e+09 1.04976308e+09 1.04976309e+09 1.04976309e+09
 1.04976310e+09 1.04976310e+09 1.04976311e+09 1.04976311e+09
 1.04976312e+09 1.04976312e+09 1.04976313e+09 1.04976313e+09
 1.04976314e+09 1.04976314e+09 1.04976315e+09 1.04976315e+09
 1.04976316e+09 1.04976316e+09 1.04976317e+09 1.04976317e+09
 1.04976318e+09 1.04976318e+09 1.04976319e+09 1.04976319e+09
 1.04976320e+09 1.04976320e+09 1.04976321e+09 1.04976321e+09
 1.04976322e+09 1.04976322e+09 1.04976323e+09 1.04976323e+09
 1.04976324e+09 1.04976325e+09 1.04976325e+09 1.04976326e+09
 1.04976326e+09 1.04976327e+09 1.04976327e+09 1.04976328e+09
 1.04976328e+09 1.04976329e+09 1.04976329e+09 1.04976330e+09
 1.04976330e+09 1.04976331e+09 1.04976331e+09 1.04976332e+09
 1.04976332e+09 1.04976333e+09 1.04976333e+09 1.04976334e+09
 1.04976334e+09 1.04976335e+09 1.04976335e+09 1.04976336e+09
 1.04976336e+09 1.04976337e+09 1.04976337e+09 1.04976338e+09
 1.04976338e+09 1.04976339e+09 1.04976339e+09 1.04976340e+09
 1.04976340e+09 1.04976341e+09 1.04976341e+09 1.04976342e+09
 1.04976342e+09 1.04976343e+09 1.04976343e+09 1.04976344e+09
 1.04976344e+09 1.04976345e+09 1.04976345e+09 1.04976346e+09
 1.04976347e+09 1.04976347e+09 1.04976348e+09 1.04976348e+09
 1.04976349e+09 1.04976349e+09 1.04976350e+09 1.04976350e+09
 1.04976351e+09 1.04976351e+09 1.04976352e+09 1.04976352e+09
 1.04976353e+09 1.04976353e+09 1.04976354e+09 1.04976354e+09
 1.04976355e+09 1.04976355e+09 1.04976356e+09 1.04976356e+09
 1.04976357e+09 1.04976357e+09 1.04976358e+09 1.04976358e+09
 1.04976359e+09 1.04976359e+09 1.04976360e+09 1.04976360e+09
 1.04976361e+09 1.04976361e+09 1.04976362e+09 1.04976362e+09
 1.04976363e+09 1.04976363e+09 1.04976364e+09 1.04976364e+09
 1.04976365e+09 1.04976365e+09 1.04976366e+09 1.04976366e+09
 1.04976367e+09 1.04976368e+09 1.04976368e+09 1.04976369e+09
 1.04976369e+09 1.04976370e+09 1.04976370e+09 1.04976371e+09
 1.04976371e+09 1.04976372e+09 1.04976372e+09 1.04976373e+09
