name =JUICE_ROI_CAL_3_0_03
flyby =  ['2033 JUL 16 02:11:44', '2033 JUL 17 02:11:44']
Observation TW =  <SpiceCell dtype = 1, length = 0, size = 2600, card = 6, is_set = 1, adjust = 0, init = 1, base = 2554795575104, data = 2554795575152>
Res(t) =  [0.34381174 0.34530267 0.34697758 0.34881752 0.35080609 0.35292905
 0.35517392 0.35752978 0.35998696 0.36253692 0.36517206 0.3678856
 0.37067146 0.37352419 0.37643887 0.37941108 0.38243677 0.3855123
 0.38863435 0.39179988 0.3950061  0.39825049 0.4015307  0.40484458
 0.40819016 0.41156561 0.41496923 0.41839946 0.42185485 0.42533406
 0.42883581 0.43235896 0.4359024  0.43946512 0.44304617 0.44664465
 0.45025974 0.45389064 0.45753663 0.46119701 0.46487113 0.46855838
 0.47225818 0.47596999 0.4796933  0.48342761 0.48717246 0.49092743
 0.4946921  0.49846608 0.50224899 0.5060405  0.50984025 0.51364794
 0.51746325 0.52128592 0.52511565 0.52895219 0.53279528 0.5366447
 0.54050022 0.54436161 0.54822867 0.55210121 0.55597903 0.55986195
 0.5637498  0.56764242 0.57153963 0.5754413  0.57934727 0.58325741
 0.58717157 0.59108963 0.59501147 0.59893696 0.60286599 0.60679845
 0.61073423 0.61467323 0.61861535 0.6225605  0.62650858 0.6304595
 0.63441319 0.63836955 0.64232851 0.64629    0.65025393 0.65422023
 0.65818885 0.6621597  0.66613274 0.67010788 0.67408508 0.67806427
 0.68204541 0.68602842 0.69001327 0.6939999  0.69798826 0.7019783
 0.70596997 0.70996324 0.71395805 0.71795437 0.72195215 0.72595135
 0.72995193 0.73395387 0.73795711 0.74196162 0.74596738 0.74997434
 0.75398248 0.75799175 0.76200214 0.76601361 0.77312684 0.77713534
 0.78114489 0.78515548 0.78916707 0.79317963 0.79719315 0.80120759
 0.80522293 0.80923915 0.81325622 0.81727412 0.82129283 0.82531233
 0.82933259 0.8333536  0.83737533 0.84139777 0.8454209  0.84944469
 0.85346914 0.85749421 0.86151991 0.8655462  0.86957307 0.87360051
 0.8776285  0.88165702 0.88568606 0.88971561 0.89374565 0.89777617
 0.90180715 0.90583858 0.90987045 0.91390274 0.91793544 0.92196854
 0.92600203 0.9300359  0.93407013 0.93810472 0.94213964 0.9461749
 0.95021048 0.95424637 0.95828256 0.96231905 0.96635581 0.97039285
 0.97443015 0.9784677  0.9825055  0.98654354 0.9905818  0.99462028
 0.99865898 1.00269787 1.00673697 1.01077625 1.01481571 1.01885534
 1.02289514 1.0269351  1.03097521 1.03501546 1.03905585 1.04309638
 1.04713703 1.05117779 1.05521867 1.05925966 1.06330075 1.06734193
 1.0713832  1.07542455 1.07946598 1.08350748 1.08754905 1.09159068
 1.09563236 1.0996741  1.10371588 1.10775771 1.11179957 1.11584146
 1.11988338 1.12392532 1.12796728 1.13200925 1.13605123 1.14009321
 1.1441352  1.14817718 1.15221916 1.15626112 1.16030307 1.164345
 1.16838691 1.17242879 1.17647063 1.18051245 1.18455422 1.18859596
 1.19263765 1.19667929 1.20072088 1.20476242 1.2088039  1.21284532
 1.21688667 1.22092796 1.22496917 1.22901031 1.23305138 1.23709237
 1.24113327 1.24517409 1.24921483 1.25325547 1.25729602 1.26133647
 1.26537683 1.26941708 1.27345723 1.27749728 1.28153722 1.28557704
 1.28961676 1.29365636 1.29769584 1.3017352  1.30577444 1.30981355
 1.31385254 1.3178914  1.32193013 1.32596872 1.33000719 1.33404551
 1.33808369 1.34212174 1.34615964 1.35019739 1.354235   1.35827246
 1.36230977 1.36634693 1.37038393 1.37442078 1.37845747 1.382494
 1.38653037 1.39056658 1.39460262 1.3986385  1.4026742  1.40670974
 1.41074511 1.41478031 1.41881533 1.42285018 1.42688485 1.43091934
 1.43495365 1.43898779 1.44302173 1.4470555  1.45108908 1.45512247
 1.45915567 1.46318869 1.46722151 1.47125414 1.47528658 1.47931882
 1.48335087 1.48738272 1.49141438 1.49544583 1.49947708 1.50350813
 1.50753898 1.51156962 1.51560006 1.51963029 1.52366031 1.52769012
 1.53171973 1.53574912 1.5397783  1.54380727 1.54783603 1.55186457
 1.55589289 1.559921   1.56394888 1.56797655 1.572004   1.57603123
 1.58005824 1.58408502 1.58811158 1.59213792 1.59616403 1.60018991
 1.60421557 1.60824099 1.61226619 1.61629116 1.6203159  1.6243404
 1.62836468 1.63238872 1.63641252 1.64043609 1.64445943 1.64848253
 1.65250539 1.65652801 1.6605504  1.66457254 1.66859445 1.67261611
 1.67663753 1.68065871 1.68467965 1.68870034 1.69272079 1.69674099
 1.70076095 1.70478066 1.70880012 1.71281933 1.7168383  1.72085701
 1.72487548 1.72889369 1.73291166 1.73692937 1.74094683 1.74496403
 1.74898099 1.75299768 1.75701413 1.76103031 1.76504624 1.76906192
 1.77307733 1.77709249 1.78110739 1.78512203 1.78913641 1.79315054
 1.7971644  1.80117799 1.80519133 1.80920441 1.81321722 1.81722977
 1.82124205 1.82525407 1.82926583 1.83327732 1.83728854 1.8412995
 1.84531019 1.84932061 1.85333076 1.85734065 1.86135027 1.86535962
 1.86936869 1.8733775  1.87738604 1.8813943  1.8854023  1.88941002
 1.89341747 1.89742465 1.90143155 1.90543818 1.90944453 1.91345061
 1.91745642 1.92146195 1.9254672  1.92947218 1.93347688 1.9374813
 1.94148545 1.94548931 1.9494929  1.95349621 1.95749924 1.96150199
 1.96550446 1.96950665 1.97350856 1.97751019 1.98151154 1.9855126
 1.98951339 1.99351389 1.9975141  2.00151404 2.00551369 2.00951305
 2.01351214 2.01751093 2.02150944 2.02550767 2.02950561 2.03350327
 2.03750063 2.04149771 2.04549451 2.04949101 2.05348723 2.05748316
 2.06147881 2.06547416 2.06946922 2.073464   2.07745848 2.08145268
 2.08544658 2.0894402  2.09343352 2.09742655 2.10141929 2.10541174
 2.1094039  2.11339576 2.11738733 2.12137861 2.12536959 2.12936028
 2.13335068 2.13734078 2.14133059 2.14532011 2.14930933 2.15329825
 2.15728688 2.16127521 2.16526324 2.16925098 2.17323843 2.17722557
 2.18121242 2.18519897 2.18918522 2.19317118 2.19715684 2.20114219
 2.20512725 2.20911201 2.21309648 2.21708064 2.2210645  2.22504806
 2.22903132 2.23301428 2.23699694 2.2409793  2.24496136 2.24894312
 2.25292457 2.25690573 2.26088658 2.26486713 2.26884737 2.27282731
 2.27680695 2.28078629 2.28476532 2.28874405 2.29272248 2.2967006
 2.30067841 2.30465593 2.30863313 2.31261003 2.31658663 2.32056292
 2.3245389  2.32851458 2.33248996 2.33646502 2.34043978 2.34441423
 2.34838838 2.35236222 2.35633575 2.36030897 2.36428188 2.36825449
 2.37222679 2.37619878 2.38017046 2.38414183 2.3881129  2.39208365
 2.39605409 2.40002423 2.40399405 2.40796357 2.41193277 2.41590167
 2.41987025 2.42383852 2.42780648 2.43177413 2.43574147 2.4397085
 2.44367521 2.44764162 2.45160771 2.45557349 2.45953895 2.46350411
 2.46746895 2.47143347 2.47539769 2.47936159 2.48332518 2.48728845
 2.49125141 2.49521405 2.49917638 2.5031384  2.5071001  2.51106149
 2.51502256 2.51898332 2.52294376 2.52690388 2.53086369 2.53482319
 2.53878236 2.54274123 2.54669977 2.550658   2.55461591 2.55857351
 2.56253078 2.56648775 2.57044439 2.57440072 2.57835672 2.58231241
 2.58626779 2.59022284 2.59417758 2.59813199 2.60208609 2.60603987
 2.60999333 2.61394647 2.6178993  2.6218518  2.62580398 2.62975585
 2.63370739 2.63765862 2.64160952 2.6455601  2.64951037 2.65346031
 2.65740993 2.66135923 2.66530821 2.66925687 2.6732052  2.67715322
 2.68110091 2.68504828 2.68899533 2.69294206 2.69688847 2.70083455
 2.70478031 2.70872575 2.71267086 2.71661565 2.72056012 2.72450427
 2.72844809 2.73239159 2.73633476 2.74027761 2.74422014 2.74816234
 2.75210422 2.75604577 2.759987   2.76392791 2.76786849 2.77180874
 2.77574867 2.77968828 2.78362756 2.78756651 2.79150514 2.79544344
 2.79938142 2.80331907 2.80725639 2.81119339 2.81513006 2.81906641
 2.82300243 2.82693812 2.83087348 2.83480852 2.83874323 2.84267761
 2.84661167 2.8505454  2.8544788  2.85841187 2.86234462 2.86627703
 2.87020912 2.87414088 2.87807231 2.88200342 2.88593419 2.88986464
 2.89379475 2.89772454 2.901654   2.90558313 2.90951193 2.91344039
 2.91736853 2.92129634 2.92522383 2.92915098 2.9330778  2.93700428
 2.94093044 2.94485627 2.94878177 2.95270694 2.95663177 2.96055628
 2.96448045 2.96840429 2.97232781 2.97625099 2.98017383 2.98409635
 2.98801853 2.99194039 2.99586191 2.9997831  3.00370395 3.00762447
 3.01154466 3.01546452 3.01938405 3.02330324 3.0272221  3.03114063
 3.03505882 3.03897668 3.0428942  3.0468114  3.05072825 3.05464478
 3.05856097 3.06247683 3.06639235 3.07030754 3.07422239 3.07813691
 3.08205109 3.08596494 3.08987846 3.09379164 3.09770449 3.101617
 3.10552917 3.10944101 3.11335251 3.11726368 3.12117451 3.12508501
 3.12899517 3.132905   3.13681448 3.14072364 3.14463245 3.14854093
 3.15244907 3.15635688 3.16026435 3.16417148 3.16807828 3.17198473
 3.17589086 3.17979664 3.18370209 3.18760719 3.19151197 3.1954164
 3.19932049 3.20322425 3.20712767 3.21103075 3.21493349 3.2188359
 3.22273797 3.22663969 3.23054108 3.23444213 3.23834284 3.24224321
 3.24614325 3.25004294 3.25394229 3.25784131 3.26173998 3.26563832
 3.26953632 3.27343397 3.27733129 3.28122827 3.2851249  3.2890212
 3.29291715 3.29681277 3.30070804 3.30460298 3.30849757 3.31239182
 3.31628573 3.3201793  3.32407253 3.32796542 3.33185797 3.33575017
 3.33964204 3.34353356 3.34742474 3.35131558 3.35520607 3.35909623
 3.36298604 3.36687551 3.37076464 3.37465342 3.37854187 3.38242997
 3.38631773 3.39020514 3.39409221 3.39797894 3.40186533 3.40575137
 3.40963707 3.41352242 3.41740744 3.42129211 3.42517643 3.42906041
 3.43294405 3.43682734 3.44071029 3.4445929  3.44847516 3.45235708
 3.45623865 3.46011988 3.46400076 3.4678813  3.47176149 3.47564134
 3.47952084 3.4834     3.48727882 3.49115728 3.49503541 3.49891318
 3.50279062 3.5066677  3.51054444 3.51442084 3.51829689 3.52217259
 3.52604794 3.52992296 3.53379762 3.53767194 3.54154591 3.54541953
 3.54929281 3.55316574 3.55703832 3.56091056 3.56478245 3.568654
 3.57252519 3.57639604 3.58026654 3.58413669 3.5880065  3.59187596
 3.59574507 3.59961383 3.60348225 3.60735031 3.61121803 3.6150854
 3.61895242 3.6228191  3.62668542 3.6305514  3.63441703 3.63828231
 3.64214724 3.64601182 3.64987605 3.65373993 3.65760347 3.66146665
 3.66532949 3.66919197 3.67305411 3.67691589 3.68077733 3.68463842
 3.68849915 3.69235954 3.69621958 3.70007927 3.7039386  3.70779759
 3.71165622 3.71551451 3.71937244 3.72323003 3.72708726 3.73094414
 3.73480067 3.73865685 3.74251268 3.74636816 3.75022329 3.75407806
 3.75793248 3.76178656 3.76564028 3.76949364 3.77334666 3.77719933
 3.78105164 3.7849036  3.78875521 3.79260646 3.79645737 3.80030792
 3.80415812 3.80800796 3.81185746 3.8157066  3.81955538 3.82340382
 3.8272519  3.83109963 3.83494701 3.83879403 3.8426407  3.84648701
 3.85033297 3.85417858 3.85802384 3.86186874 3.86571328 3.86955747
 3.87340131 3.8772448  3.88108793 3.8849307  3.88877313 3.89261519
 3.8964569  3.90029826 3.90413927 3.90797991 3.91182021 3.91566015
 3.91949973 3.92333896 3.92717783 3.93101635 3.93485451 3.93869232
 3.94252977 3.94636686 3.9502036  3.95403999 3.95787601 3.96171169
 3.965547   3.96938196 3.97321657 3.97705081 3.9808847  3.98471824
 3.98855142 3.99238424 3.9962167  4.00004881 4.00388056 4.00771195
 4.01154299 4.01537367 4.01920399 4.02303396 4.02686356 4.03069282
 4.03452171 4.03835024 4.04217842 4.04600624 4.0498337  4.05366081
 4.05748755 4.06131394 4.06513997 4.06896564 4.07279095 4.07661591
 4.0804405  4.08426474 4.08808862 4.09191214 4.0957353  4.0995581
 4.10338054 4.10720263 4.11102435 4.11484572 4.11866672 4.12248737
 4.12630766 4.13012759 4.13394715 4.13776636 4.14158521 4.1454037
 4.14922183 4.1530396  4.15685701 4.16067405 4.16449074 4.16830707
 4.17212304 4.17593864 4.17975389 4.18356878 4.1873833  4.19119746
 4.19501127 4.19882471 4.20263779 4.20645051 4.21026287 4.21407486
 4.2178865  4.22169777 4.22550869 4.22931924 4.23312943 4.23693926
 4.24074872 4.24455783 4.24836657 4.25217495]
t =  [1.05841024e+09 1.05841028e+09 1.05841032e+09 1.05841036e+09
 1.05841040e+09 1.05841044e+09 1.05841048e+09 1.05841052e+09
 1.05841057e+09 1.05841061e+09 1.05841065e+09 1.05841069e+09
 1.05841073e+09 1.05841077e+09 1.05841081e+09 1.05841085e+09
 1.05841089e+09 1.05841093e+09 1.05841097e+09 1.05841102e+09
 1.05841106e+09 1.05841110e+09 1.05841114e+09 1.05841118e+09
 1.05841122e+09 1.05841126e+09 1.05841130e+09 1.05841134e+09
 1.05841138e+09 1.05841142e+09 1.05841147e+09 1.05841151e+09
 1.05841155e+09 1.05841159e+09 1.05841163e+09 1.05841167e+09
 1.05841171e+09 1.05841175e+09 1.05841179e+09 1.05841183e+09
 1.05841187e+09 1.05841192e+09 1.05841196e+09 1.05841200e+09
 1.05841204e+09 1.05841208e+09 1.05841212e+09 1.05841216e+09
 1.05841220e+09 1.05841224e+09 1.05841228e+09 1.05841232e+09
 1.05841237e+09 1.05841241e+09 1.05841245e+09 1.05841249e+09
 1.05841253e+09 1.05841257e+09 1.05841261e+09 1.05841265e+09
 1.05841269e+09 1.05841273e+09 1.05841277e+09 1.05841282e+09
 1.05841286e+09 1.05841290e+09 1.05841294e+09 1.05841298e+09
 1.05841302e+09 1.05841306e+09 1.05841310e+09 1.05841314e+09
 1.05841318e+09 1.05841323e+09 1.05841327e+09 1.05841331e+09
 1.05841335e+09 1.05841339e+09 1.05841343e+09 1.05841347e+09
 1.05841351e+09 1.05841355e+09 1.05841359e+09 1.05841363e+09
 1.05841368e+09 1.05841372e+09 1.05841376e+09 1.05841380e+09
 1.05841384e+09 1.05841388e+09 1.05841392e+09 1.05841396e+09
 1.05841400e+09 1.05841404e+09 1.05841408e+09 1.05841413e+09
 1.05841417e+09 1.05841421e+09 1.05841425e+09 1.05841429e+09
 1.05841433e+09 1.05841437e+09 1.05841441e+09 1.05841445e+09
 1.05841449e+09 1.05841453e+09 1.05841458e+09 1.05841462e+09
 1.05841466e+09 1.05841470e+09 1.05841474e+09 1.05841478e+09
 1.05841482e+09 1.05841486e+09 1.05841490e+09 1.05841494e+09
 1.05841498e+09 1.05841503e+09 1.05841507e+09 1.05841511e+09
 1.05841515e+09 1.05841519e+09 1.05841523e+09 1.05841527e+09
 1.05841531e+09 1.05841535e+09 1.05841539e+09 1.05841543e+09
 1.05841548e+09 1.05841552e+09 1.05841556e+09 1.05841560e+09
 1.05841564e+09 1.05841568e+09 1.05841572e+09 1.05841576e+09
 1.05841580e+09 1.05841584e+09 1.05841588e+09 1.05841593e+09
 1.05841597e+09 1.05841601e+09 1.05841605e+09 1.05841609e+09
 1.05841613e+09 1.05841617e+09 1.05841621e+09 1.05841625e+09
 1.05841629e+09 1.05841633e+09 1.05841638e+09 1.05841642e+09
 1.05841646e+09 1.05841650e+09 1.05841654e+09 1.05841658e+09
 1.05841662e+09 1.05841666e+09 1.05841670e+09 1.05841674e+09
 1.05841678e+09 1.05841683e+09 1.05841687e+09 1.05841691e+09
 1.05841695e+09 1.05841699e+09 1.05841703e+09 1.05841707e+09
 1.05841711e+09 1.05841715e+09 1.05841719e+09 1.05841723e+09
 1.05841728e+09 1.05841732e+09 1.05841736e+09 1.05841740e+09
 1.05841744e+09 1.05841748e+09 1.05841752e+09 1.05841756e+09
 1.05841760e+09 1.05841764e+09 1.05841768e+09 1.05841773e+09
 1.05841777e+09 1.05841781e+09 1.05841785e+09 1.05841789e+09
 1.05841793e+09 1.05841797e+09 1.05841801e+09 1.05841805e+09
 1.05841809e+09 1.05841813e+09 1.05841818e+09 1.05841822e+09
 1.05841826e+09 1.05841830e+09 1.05841834e+09 1.05841838e+09
 1.05841842e+09 1.05841846e+09 1.05841850e+09 1.05841854e+09
 1.05841859e+09 1.05841863e+09 1.05841867e+09 1.05841871e+09
 1.05841875e+09 1.05841879e+09 1.05841883e+09 1.05841887e+09
 1.05841891e+09 1.05841895e+09 1.05841899e+09 1.05841904e+09
 1.05841908e+09 1.05841912e+09 1.05841916e+09 1.05841920e+09
 1.05841924e+09 1.05841928e+09 1.05841932e+09 1.05841936e+09
 1.05841940e+09 1.05841944e+09 1.05841949e+09 1.05841953e+09
 1.05841957e+09 1.05841961e+09 1.05841965e+09 1.05841969e+09
 1.05841973e+09 1.05841977e+09 1.05841981e+09 1.05841985e+09
 1.05841989e+09 1.05841994e+09 1.05841998e+09 1.05842002e+09
 1.05842006e+09 1.05842010e+09 1.05842014e+09 1.05842018e+09
 1.05842022e+09 1.05842026e+09 1.05842030e+09 1.05842034e+09
 1.05842039e+09 1.05842043e+09 1.05842047e+09 1.05842051e+09
 1.05842055e+09 1.05842059e+09 1.05842063e+09 1.05842067e+09
 1.05842071e+09 1.05842075e+09 1.05842079e+09 1.05842084e+09
 1.05842088e+09 1.05842092e+09 1.05842096e+09 1.05842100e+09
 1.05842104e+09 1.05842108e+09 1.05842112e+09 1.05842116e+09
 1.05842120e+09 1.05842124e+09 1.05842129e+09 1.05842133e+09
 1.05842137e+09 1.05842141e+09 1.05842145e+09 1.05842149e+09
 1.05842153e+09 1.05842157e+09 1.05842161e+09 1.05842165e+09
 1.05842169e+09 1.05842174e+09 1.05842178e+09 1.05842182e+09
 1.05842186e+09 1.05842190e+09 1.05842194e+09 1.05842198e+09
 1.05842202e+09 1.05842206e+09 1.05842210e+09 1.05842214e+09
 1.05842219e+09 1.05842223e+09 1.05842227e+09 1.05842231e+09
 1.05842235e+09 1.05842239e+09 1.05842243e+09 1.05842247e+09
 1.05842251e+09 1.05842255e+09 1.05842259e+09 1.05842264e+09
 1.05842268e+09 1.05842272e+09 1.05842276e+09 1.05842280e+09
 1.05842284e+09 1.05842288e+09 1.05842292e+09 1.05842296e+09
 1.05842300e+09 1.05842304e+09 1.05842309e+09 1.05842313e+09
 1.05842317e+09 1.05842321e+09 1.05842325e+09 1.05842329e+09
 1.05842333e+09 1.05842337e+09 1.05842341e+09 1.05842345e+09
 1.05842349e+09 1.05842354e+09 1.05842358e+09 1.05842362e+09
 1.05842366e+09 1.05842370e+09 1.05842374e+09 1.05842378e+09
 1.05842382e+09 1.05842386e+09 1.05842390e+09 1.05842395e+09
 1.05842399e+09 1.05842403e+09 1.05842407e+09 1.05842411e+09
 1.05842415e+09 1.05842419e+09 1.05842423e+09 1.05842427e+09
 1.05842431e+09 1.05842435e+09 1.05842440e+09 1.05842444e+09
 1.05842448e+09 1.05842452e+09 1.05842456e+09 1.05842460e+09
 1.05842464e+09 1.05842468e+09 1.05842472e+09 1.05842476e+09
 1.05842480e+09 1.05842485e+09 1.05842489e+09 1.05842493e+09
 1.05842497e+09 1.05842501e+09 1.05842505e+09 1.05842509e+09
 1.05842513e+09 1.05842517e+09 1.05842521e+09 1.05842525e+09
 1.05842530e+09 1.05842534e+09 1.05842538e+09 1.05842542e+09
 1.05842546e+09 1.05842550e+09 1.05842554e+09 1.05842558e+09
 1.05842562e+09 1.05842566e+09 1.05842570e+09 1.05842575e+09
 1.05842579e+09 1.05842583e+09 1.05842587e+09 1.05842591e+09
 1.05842595e+09 1.05842599e+09 1.05842603e+09 1.05842607e+09
 1.05842611e+09 1.05842615e+09 1.05842620e+09 1.05842624e+09
 1.05842628e+09 1.05842632e+09 1.05842636e+09 1.05842640e+09
 1.05842644e+09 1.05842648e+09 1.05842652e+09 1.05842656e+09
 1.05842660e+09 1.05842665e+09 1.05842669e+09 1.05842673e+09
 1.05842677e+09 1.05842681e+09 1.05842685e+09 1.05842689e+09
 1.05842693e+09 1.05842697e+09 1.05842701e+09 1.05842705e+09
 1.05842710e+09 1.05842714e+09 1.05842718e+09 1.05842722e+09
 1.05842726e+09 1.05842730e+09 1.05842734e+09 1.05842738e+09
 1.05842742e+09 1.05842746e+09 1.05842750e+09 1.05842755e+09
 1.05842759e+09 1.05842763e+09 1.05842767e+09 1.05842771e+09
 1.05842775e+09 1.05842779e+09 1.05842783e+09 1.05842787e+09
 1.05842791e+09 1.05842795e+09 1.05842800e+09 1.05842804e+09
 1.05842808e+09 1.05842812e+09 1.05842816e+09 1.05842820e+09
 1.05842824e+09 1.05842828e+09 1.05842832e+09 1.05842836e+09
 1.05842840e+09 1.05842845e+09 1.05842849e+09 1.05842853e+09
 1.05842857e+09 1.05842861e+09 1.05842865e+09 1.05842869e+09
 1.05842873e+09 1.05842877e+09 1.05842881e+09 1.05842885e+09
 1.05842890e+09 1.05842894e+09 1.05842898e+09 1.05842902e+09
 1.05842906e+09 1.05842910e+09 1.05842914e+09 1.05842918e+09
 1.05842922e+09 1.05842926e+09 1.05842931e+09 1.05842935e+09
 1.05842939e+09 1.05842943e+09 1.05842947e+09 1.05842951e+09
 1.05842955e+09 1.05842959e+09 1.05842963e+09 1.05842967e+09
 1.05842971e+09 1.05842976e+09 1.05842980e+09 1.05842984e+09
 1.05842988e+09 1.05842992e+09 1.05842996e+09 1.05843000e+09
 1.05843004e+09 1.05843008e+09 1.05843012e+09 1.05843016e+09
 1.05843021e+09 1.05843025e+09 1.05843029e+09 1.05843033e+09
 1.05843037e+09 1.05843041e+09 1.05843045e+09 1.05843049e+09
 1.05843053e+09 1.05843057e+09 1.05843061e+09 1.05843066e+09
 1.05843070e+09 1.05843074e+09 1.05843078e+09 1.05843082e+09
 1.05843086e+09 1.05843090e+09 1.05843094e+09 1.05843098e+09
 1.05843102e+09 1.05843106e+09 1.05843111e+09 1.05843115e+09
 1.05843119e+09 1.05843123e+09 1.05843127e+09 1.05843131e+09
 1.05843135e+09 1.05843139e+09 1.05843143e+09 1.05843147e+09
 1.05843151e+09 1.05843156e+09 1.05843160e+09 1.05843164e+09
 1.05843168e+09 1.05843172e+09 1.05843176e+09 1.05843180e+09
 1.05843184e+09 1.05843188e+09 1.05843192e+09 1.05843196e+09
 1.05843201e+09 1.05843205e+09 1.05843209e+09 1.05843213e+09
 1.05843217e+09 1.05843221e+09 1.05843225e+09 1.05843229e+09
 1.05843233e+09 1.05843237e+09 1.05843241e+09 1.05843246e+09
 1.05843250e+09 1.05843254e+09 1.05843258e+09 1.05843262e+09
 1.05843266e+09 1.05843270e+09 1.05843274e+09 1.05843278e+09
 1.05843282e+09 1.05843286e+09 1.05843291e+09 1.05843295e+09
 1.05843299e+09 1.05843303e+09 1.05843307e+09 1.05843311e+09
 1.05843315e+09 1.05843319e+09 1.05843323e+09 1.05843327e+09
