name =JUICE_ROI_CAL_5_0_06
flyby =  ['2033 JUL 16 02:11:44', '2033 JUL 17 02:11:44']
Observation TW =  <SpiceCell dtype = 1, length = 0, size = 3000, card = 10, is_set = 1, adjust = 0, init = 1, base = 2554804125744, data = 2554804125792>
Res(t) =  [0.49189445 0.49479223 0.49775426 0.50077646 0.50385508 0.50698669
 0.5101681  0.5133964  0.51666891 0.51998313 0.52333675 0.52672764
 0.53015381 0.53361341 0.53710471 0.54062612 0.54417614 0.54775335
 0.55135645 0.55498422 0.55863549 0.56230918 0.56600428 0.56971982
 0.57345491 0.57720869 0.58098036 0.58476916 0.58857437 0.59239532
 0.59623137 0.60008191 0.60394635 0.60782416 0.61171482 0.61561782
 0.61953271 0.62345903 0.62739636 0.6313443  0.63530246 0.63927047
 0.64324799 0.64723467 0.65123019 0.65523426 0.65924657 0.66326685
 0.66729483 0.67133026 0.67537288 0.67942246 0.68347878 0.68754161
 0.69161076 0.69568602 0.69976719 0.7038541  0.70794656 0.71204442
 0.71614749 0.72025562 0.72436867 0.72848648 0.73260892 0.73673584
 0.74086712 0.74500263 0.74914224 0.75328585 0.75743333 0.76158458
 0.76573949 0.76989795 0.77405987 0.77822516 0.78239371 0.78656544
 0.79074027 0.7949181  0.79909886 0.80328247 0.80746885 0.81165793
 0.81584964 0.8200439  0.82424066 0.82843983 0.83264137 0.83684521
 0.84105129 0.84525955 0.84946993 0.85368239 0.85789686 0.8621133
 0.86633165 0.87466442 0.87887811 0.88309369 0.8873111  0.8915303
 0.89575125 0.8999739  0.90419821 0.90842415 0.91265166 0.91688071
 0.92111126 0.92534328 0.92957673 0.93381157 0.93804778 0.94228531
 0.94652413 0.95076422 0.95500553 0.95924805 0.96349174 0.96773658
 0.97198253 0.97622957 0.98047766 0.9847268  0.98897694 0.99322807
 0.99748016 1.00173319 1.00598713 1.01024196 1.01449766 1.0187542
 1.02301158 1.02726976 1.03152872 1.03578845 1.04004893 1.04431013
 1.04857204 1.05283465 1.05709792 1.06136186 1.06562643 1.06989163
 1.07415743 1.07842382 1.08269078 1.08695831 1.09122638 1.09549498
 1.0997641  1.10403372 1.10830382 1.11257441 1.11684545 1.12111694
 1.12538887 1.12966122 1.13393398 1.13820714 1.14248069 1.14675462
 1.15102891 1.15530356 1.15957855 1.16385387 1.16812951 1.17240547
 1.17668173 1.18095827 1.18523511 1.18951221 1.19378958 1.1980672
 1.20234507 1.20662318 1.21090151 1.21518007 1.21945883 1.2237378
 1.22801696 1.23229631 1.23657584 1.24085555 1.24513541 1.24941544
 1.25369561 1.25797593 1.26225638 1.26653696 1.27081766 1.27509848
 1.2793794  1.28366043 1.28794156 1.29222278 1.29650407 1.30078545
 1.3050669  1.30934842 1.31362999 1.31791162 1.32219331 1.32647503
 1.33075679 1.33503859 1.33932041 1.34360226 1.34788413 1.352166
 1.35644789 1.36072978 1.36501167 1.36929355 1.37357543 1.37785728
 1.38213912 1.38642093 1.39070272 1.39498447 1.39926619 1.40354787
 1.4078295  1.41211108 1.41639262 1.42067409 1.4249555  1.42923685
 1.43351814 1.43779935 1.44208049 1.44636154 1.45064252 1.45492341
 1.45920421 1.46348492 1.46776554 1.47204605 1.47632647 1.48060677
 1.48488698 1.48916706 1.49344704 1.4977269  1.50200664 1.50628625
 1.51056574 1.5148451  1.51912433 1.52340342 1.52768238 1.5319612
 1.53623987 1.5405184  1.54479678 1.54907502 1.5533531  1.55763102
 1.56190879 1.56618639 1.57046384 1.57474112 1.57901823 1.58329518
 1.58757195 1.59184855 1.59612497 1.60040122 1.60467728 1.60895316
 1.61322886 1.61750437 1.62177969 1.62605483 1.63032976 1.63460451
 1.63887906 1.64315341 1.64742756 1.6517015  1.65597525 1.66024878
 1.66452211 1.66879523 1.67306814 1.67734084 1.68161332 1.68588558
 1.69015763 1.69442945 1.69870106 1.70297244 1.7072436  1.71151453
 1.71578523 1.72005571 1.72432595 1.72859596 1.73286574 1.73713528
 1.74140459 1.74567365 1.74994248 1.75421107 1.75847941 1.76274751
 1.76701536 1.77128297 1.77555033 1.77981744 1.7840843  1.7883509
 1.79261726 1.79688336 1.8011492  1.80541479 1.80968012 1.81394519
 1.81821    1.82247454 1.82673883 1.83100285 1.8352666  1.83953009
 1.84379331 1.84805626 1.85231895 1.85658136 1.8608435  1.86510536
 1.86936696 1.87362827 1.87788931 1.88215008 1.88641056 1.89067077
 1.89493069 1.89919034 1.9034497  1.90770878 1.91196758 1.91622609
 1.92048431 1.92474225 1.9289999  1.93325726 1.93751433 1.94177111
 1.9460276  1.95028379 1.9545397  1.9587953  1.96305062 1.96730564
 1.97156036 1.97581478 1.98006891 1.98432273 1.98857626 1.99282949
 1.99708241 2.00133503 2.00558735 2.00983937 2.01409108 2.01834248
 2.02259358 2.02684438 2.03109486 2.03534504 2.0395949  2.04384446
 2.04809371 2.05234265 2.05659127 2.06083958 2.06508758 2.06933526
 2.07358263 2.07782969 2.08207643 2.08632285 2.09056895 2.09481474
 2.09906021 2.10330536 2.10755019 2.1117947  2.11603888 2.12028275
 2.12452629 2.12876952 2.13301241 2.13725499 2.14149723 2.14573916
 2.14998076 2.15422203 2.15846297 2.16270359 2.16694388 2.17118384
 2.17542347 2.17966277 2.18390174 2.18814038 2.19237869 2.19661667
 2.20085431 2.20509162 2.2093286  2.21356524 2.21780155 2.22203753
 2.22627317 2.23050847 2.23474344 2.23897807 2.24321236 2.24744631
 2.25167993 2.2559132  2.26014614 2.26437874 2.268611   2.27284291
 2.27707449 2.28130572 2.28553661 2.28976716 2.29399737 2.29822723
 2.30245675 2.30668592 2.31091475 2.31514324 2.31937138 2.32359917
 2.32782661 2.33205371 2.33628046 2.34050687 2.34473292 2.34895863
 2.35318399 2.357409   2.36163366 2.36585797 2.37008193 2.37430553
 2.37852879 2.3827517  2.38697425 2.39119645 2.3954183  2.39963979
 2.40386093 2.40808172 2.41230215 2.41652223 2.42074195 2.42496132
 2.42918033 2.43339898 2.43761728 2.44183522 2.44605281 2.45027004
 2.45448691 2.45870342 2.46291957 2.46713536 2.4713508  2.47556588
 2.47978059 2.48399495 2.48820894 2.49242257 2.49663585 2.50084876
 2.50506131 2.50927349 2.51348532 2.51769678 2.52190788 2.52611862
 2.53032899 2.534539   2.53874864 2.54295792 2.54716683 2.55137538
 2.55558357 2.55979138 2.56399883 2.56820592 2.57241264 2.57661899
 2.58082497 2.58503059 2.58923584 2.59344072 2.59764523 2.60184938
 2.60605315 2.61025656 2.6144596  2.61866226 2.62286456 2.62706649
 2.63126804 2.63546923 2.63967004 2.64387048 2.64807055 2.65227025
 2.65646958 2.66066853 2.66486712 2.66906533 2.67326316 2.67746062
 2.68165771 2.68585443 2.69005077 2.69424673 2.69844233 2.70263754
 2.70683238 2.71102685 2.71522094 2.71941466 2.72360799 2.72780096
 2.73199354 2.73618575 2.74037758 2.74456904 2.74876011 2.75295081
 2.75714113 2.76133108 2.76552064 2.76970983 2.77389864 2.77808706
 2.78227511 2.78646278 2.79065007 2.79483698 2.79902351 2.80320966
 2.80739543 2.81158081 2.81576582 2.81995044 2.82413469 2.82831855
 2.83250203 2.83668513 2.84086784 2.84505017 2.84923212 2.85341369
 2.85759487 2.86177568 2.86595609 2.87013613 2.87431577 2.87849504
 2.88267392 2.88685242 2.89103053 2.89520825 2.89938559 2.90356255
 2.90773912 2.9119153  2.9160911  2.92026651 2.92444154 2.92861618
 2.93279043 2.9369643  2.94113778 2.94531087 2.94948357 2.95365589
 2.95782782 2.96199936 2.96617051 2.97034127 2.97451165 2.97868164
 2.98285123 2.98702044 2.99118926 2.99535769 2.99952573 3.00369338
 3.00786064 3.01202751 3.01619399 3.02036008 3.02452578 3.02869108
 3.032856   3.03702053 3.04118466 3.0453484  3.04951175 3.05367471
 3.05783728 3.06199945 3.06616123 3.07032262 3.07448362 3.07864422
 3.08280443 3.08696425 3.09112367 3.0952827  3.09944134 3.10359958
 3.10775743 3.11191489 3.11607195 3.12022861 3.12438488 3.12854076
 3.13269624 3.13685132 3.14100601 3.14516031 3.14931421 3.15346771
 3.15762082 3.16177353 3.16592585 3.17007776 3.17422929 3.17838041
 3.18253114 3.18668147 3.19083141 3.19498094 3.19913008 3.20327882
 3.20742717 3.21157511 3.21572266 3.21986981 3.22401656 3.22816292
 3.23230887 3.23645443 3.24059958 3.24474434 3.2488887  3.25303266
 3.25717622 3.26131938 3.26546214 3.2696045  3.27374645 3.27788801
 3.28202917 3.28616993 3.29031029 3.29445025 3.2985898  3.30272896
 3.30686771 3.31100606 3.31514401 3.31928156 3.32341871 3.32755546
 3.3316918  3.33582774 3.33996328 3.34409842 3.34823315 3.35236748
 3.35650141 3.36063493 3.36476806 3.36890078 3.37303309 3.377165
 3.38129651 3.38542762 3.38955832 3.39368861 3.3978185  3.40194799
 3.40607708 3.41020576 3.41433403 3.4184619  3.42258936 3.42671642
 3.43084308 3.43496933 3.43909517 3.44322061 3.44734564 3.45147027
 3.45559449 3.4597183  3.46384171 3.46796471 3.4720873  3.47620949
 3.48033127 3.48445265 3.48857362 3.49269418 3.49681433 3.50093408
 3.50505342 3.50917235 3.51329087 3.51740899 3.52152669 3.52564399
 3.52976089 3.53387737 3.53799344 3.54210911 3.54622437 3.55033922
 3.55445366 3.55856769 3.56268131 3.56679452 3.57090732 3.57501972
 3.5791317  3.58324327 3.58735444 3.59146519 3.59557554 3.59968547
 3.603795   3.60790411 3.61201281 3.6161211  3.62022898 3.62433645
 3.62844351 3.63255016 3.6366564  3.64076222 3.64486764 3.64897264
 3.65307723 3.65718141 3.66128518 3.66538853 3.66949148 3.67359401
 3.67769613 3.68179783 3.68589913 3.69000001 3.69410047 3.69820053
 3.70230017 3.7063994  3.71049822 3.71459662 3.71869461 3.72279218
 3.72688934 3.73098609 3.73508242 3.73917834 3.74327385 3.74736894
 3.75146362 3.75555788 3.75965173 3.76374516 3.76783818 3.77193079
 3.77602298 3.78011475 3.78420611 3.78829705 3.79238758 3.79647769
 3.80056739 3.80465667 3.80874554 3.81283399 3.81692202 3.82100964
 3.82509684 3.82918362 3.83326999 3.83735594 3.84144148 3.8455266
 3.8496113  3.85369558 3.85777945 3.8618629  3.86594594 3.87002855
 3.87411075 3.87819253 3.88227389 3.88635484 3.89043537 3.89451548
 3.89859517 3.90267444 3.9067533  3.91083173 3.91490975 3.91898735
 3.92306453 3.9271413  3.93121764 3.93529356 3.93936907 3.94344416
 3.94751882 3.95159307 3.9556669  3.95974031 3.9638133  3.96788586
 3.97195801 3.97602974 3.98010105 3.98417194 3.98824241 3.99231246
 3.99638209 4.00045129 4.00452008 4.00858845 4.01265639 4.01672392
 4.02079102 4.0248577  4.02892396 4.0329898  4.03705522 4.04112022
 4.0451848  4.04924895 4.05331268 4.05737599 4.06143888 4.06550134
 4.06956339 4.07362501 4.07768621 4.08174699 4.08580734 4.08986727
 4.09392678 4.09798587 4.10204453 4.10610277 4.11016059 4.11421798
 4.11827495 4.1223315  4.12638762 4.13044332 4.1344986  4.13855345
 4.14260788 4.14666188 4.15071546 4.15476862 4.15882135 4.16287366
 4.16692554 4.170977   4.17502804 4.17907865 4.18312883 4.18717859
 4.19122793 4.19527684 4.19932533 4.20337339 4.20742102 4.21146823
 4.21551501 4.21956137 4.22360731 4.22765281 4.23169789 4.23574255
 4.23978678 4.24383058 4.24787396 4.25191691 4.25595943 4.26000153
 4.2640432  4.26808445 4.27212526 4.27616565 4.28020562 4.28424516
 4.28828427 4.29232295 4.2963612  4.30039903 4.30443643 4.30847341
 4.31250995 4.31654607 4.32058176 4.32461702 4.32865186 4.33268626
 4.33672024 4.34075379 4.34478691 4.34881961 4.35285187 4.35688371
 4.36091511 4.36494609 4.36897664 4.37300676 4.37703646 4.38106572
 4.38509455 4.38912296 4.39315093 4.39717848 4.4012056  4.40523228
 4.40925854 4.41328437 4.41730976 4.42133473 4.42535927 4.42938338
 4.43340705 4.4374303  4.44145312 4.4454755  4.44949746 4.45351899
 4.45754008 4.46156074 4.46558098 4.46960078 4.47362015 4.47763909
 4.4816576  4.48567567 4.48969332 4.49371053 4.49772732 4.50174367
 4.50575959 4.50977508 4.51379013 4.51780476 4.52181895 4.52583271
 4.52984604 4.53385893 4.53787139 4.54188343 4.54589502 4.54990619
 4.55391692 4.55792722 4.56193709 4.56594652 4.56995553 4.57396409
 4.57797223 4.58197993 4.5859872  4.58999403 4.59400044 4.5980064
 4.60201194 4.60601704 4.61002171 4.61402594 4.61802974 4.6220331
 4.62603603 4.63003853 4.63404059 4.63804222]
t =  [1.05841118e+09 1.05841122e+09 1.05841126e+09 1.05841130e+09
 1.05841134e+09 1.05841138e+09 1.05841142e+09 1.05841146e+09
 1.05841150e+09 1.05841154e+09 1.05841158e+09 1.05841162e+09
 1.05841166e+09 1.05841170e+09 1.05841174e+09 1.05841178e+09
 1.05841182e+09 1.05841186e+09 1.05841190e+09 1.05841194e+09
 1.05841198e+09 1.05841202e+09 1.05841206e+09 1.05841210e+09
 1.05841214e+09 1.05841218e+09 1.05841222e+09 1.05841226e+09
 1.05841230e+09 1.05841234e+09 1.05841238e+09 1.05841242e+09
 1.05841246e+09 1.05841250e+09 1.05841254e+09 1.05841258e+09
 1.05841262e+09 1.05841266e+09 1.05841270e+09 1.05841274e+09
 1.05841278e+09 1.05841282e+09 1.05841286e+09 1.05841290e+09
 1.05841294e+09 1.05841298e+09 1.05841302e+09 1.05841306e+09
 1.05841310e+09 1.05841314e+09 1.05841318e+09 1.05841322e+09
 1.05841326e+09 1.05841330e+09 1.05841334e+09 1.05841338e+09
 1.05841342e+09 1.05841346e+09 1.05841350e+09 1.05841354e+09
 1.05841358e+09 1.05841363e+09 1.05841367e+09 1.05841371e+09
 1.05841375e+09 1.05841379e+09 1.05841383e+09 1.05841387e+09
 1.05841391e+09 1.05841395e+09 1.05841399e+09 1.05841403e+09
 1.05841407e+09 1.05841411e+09 1.05841415e+09 1.05841419e+09
 1.05841423e+09 1.05841427e+09 1.05841431e+09 1.05841435e+09
 1.05841439e+09 1.05841443e+09 1.05841447e+09 1.05841451e+09
 1.05841455e+09 1.05841459e+09 1.05841463e+09 1.05841467e+09
 1.05841471e+09 1.05841475e+09 1.05841479e+09 1.05841483e+09
 1.05841487e+09 1.05841491e+09 1.05841495e+09 1.05841499e+09
 1.05841503e+09 1.05841507e+09 1.05841511e+09 1.05841515e+09
 1.05841519e+09 1.05841523e+09 1.05841527e+09 1.05841531e+09
 1.05841535e+09 1.05841539e+09 1.05841543e+09 1.05841547e+09
 1.05841551e+09 1.05841555e+09 1.05841559e+09 1.05841563e+09
 1.05841567e+09 1.05841571e+09 1.05841575e+09 1.05841579e+09
 1.05841583e+09 1.05841587e+09 1.05841591e+09 1.05841595e+09
 1.05841599e+09 1.05841603e+09 1.05841607e+09 1.05841611e+09
 1.05841615e+09 1.05841619e+09 1.05841623e+09 1.05841627e+09
 1.05841631e+09 1.05841635e+09 1.05841639e+09 1.05841643e+09
 1.05841647e+09 1.05841651e+09 1.05841655e+09 1.05841659e+09
 1.05841663e+09 1.05841667e+09 1.05841671e+09 1.05841675e+09
 1.05841679e+09 1.05841683e+09 1.05841687e+09 1.05841691e+09
 1.05841695e+09 1.05841699e+09 1.05841703e+09 1.05841707e+09
 1.05841711e+09 1.05841715e+09 1.05841719e+09 1.05841723e+09
 1.05841727e+09 1.05841731e+09 1.05841735e+09 1.05841739e+09
 1.05841743e+09 1.05841747e+09 1.05841751e+09 1.05841755e+09
 1.05841759e+09 1.05841763e+09 1.05841767e+09 1.05841771e+09
 1.05841775e+09 1.05841779e+09 1.05841783e+09 1.05841787e+09
 1.05841791e+09 1.05841795e+09 1.05841799e+09 1.05841803e+09
 1.05841807e+09 1.05841811e+09 1.05841815e+09 1.05841819e+09
 1.05841823e+09 1.05841827e+09 1.05841831e+09 1.05841835e+09
 1.05841839e+09 1.05841843e+09 1.05841847e+09 1.05841851e+09
 1.05841855e+09 1.05841859e+09 1.05841863e+09 1.05841867e+09
 1.05841871e+09 1.05841875e+09 1.05841879e+09 1.05841883e+09
 1.05841887e+09 1.05841891e+09 1.05841895e+09 1.05841899e+09
 1.05841903e+09 1.05841907e+09 1.05841911e+09 1.05841915e+09
 1.05841919e+09 1.05841923e+09 1.05841927e+09 1.05841931e+09
 1.05841935e+09 1.05841939e+09 1.05841943e+09 1.05841947e+09
 1.05841951e+09 1.05841955e+09 1.05841959e+09 1.05841963e+09
 1.05841967e+09 1.05841971e+09 1.05841975e+09 1.05841979e+09
 1.05841983e+09 1.05841987e+09 1.05841991e+09 1.05841995e+09
 1.05841999e+09 1.05842003e+09 1.05842007e+09 1.05842011e+09
 1.05842015e+09 1.05842019e+09 1.05842023e+09 1.05842027e+09
 1.05842031e+09 1.05842035e+09 1.05842039e+09 1.05842043e+09
 1.05842047e+09 1.05842051e+09 1.05842055e+09 1.05842059e+09
 1.05842063e+09 1.05842067e+09 1.05842071e+09 1.05842075e+09
 1.05842079e+09 1.05842083e+09 1.05842087e+09 1.05842091e+09
 1.05842095e+09 1.05842099e+09 1.05842103e+09 1.05842107e+09
 1.05842111e+09 1.05842115e+09 1.05842119e+09 1.05842123e+09
 1.05842127e+09 1.05842131e+09 1.05842135e+09 1.05842139e+09
 1.05842143e+09 1.05842147e+09 1.05842151e+09 1.05842155e+09
 1.05842159e+09 1.05842163e+09 1.05842167e+09 1.05842171e+09
 1.05842175e+09 1.05842179e+09 1.05842183e+09 1.05842187e+09
 1.05842191e+09 1.05842195e+09 1.05842199e+09 1.05842203e+09
 1.05842207e+09 1.05842211e+09 1.05842215e+09 1.05842219e+09
 1.05842223e+09 1.05842227e+09 1.05842231e+09 1.05842235e+09
 1.05842239e+09 1.05842243e+09 1.05842247e+09 1.05842251e+09
 1.05842255e+09 1.05842259e+09 1.05842263e+09 1.05842267e+09
 1.05842271e+09 1.05842275e+09 1.05842279e+09 1.05842283e+09
 1.05842287e+09 1.05842291e+09 1.05842295e+09 1.05842299e+09
 1.05842303e+09 1.05842307e+09 1.05842311e+09 1.05842315e+09
 1.05842319e+09 1.05842323e+09 1.05842327e+09 1.05842331e+09
 1.05842335e+09 1.05842339e+09 1.05842343e+09 1.05842347e+09
 1.05842351e+09 1.05842355e+09 1.05842359e+09 1.05842363e+09
 1.05842367e+09 1.05842371e+09 1.05842375e+09 1.05842379e+09
 1.05842383e+09 1.05842387e+09 1.05842391e+09 1.05842395e+09
 1.05842399e+09 1.05842403e+09 1.05842407e+09 1.05842411e+09
 1.05842415e+09 1.05842419e+09 1.05842423e+09 1.05842427e+09
 1.05842431e+09 1.05842435e+09 1.05842439e+09 1.05842443e+09
 1.05842447e+09 1.05842451e+09 1.05842455e+09 1.05842459e+09
 1.05842463e+09 1.05842467e+09 1.05842471e+09 1.05842475e+09
 1.05842479e+09 1.05842483e+09 1.05842487e+09 1.05842491e+09
 1.05842495e+09 1.05842499e+09 1.05842503e+09 1.05842507e+09
 1.05842511e+09 1.05842515e+09 1.05842519e+09 1.05842523e+09
 1.05842527e+09 1.05842531e+09 1.05842535e+09 1.05842539e+09
 1.05842543e+09 1.05842547e+09 1.05842551e+09 1.05842555e+09
 1.05842559e+09 1.05842563e+09 1.05842567e+09 1.05842571e+09
 1.05842575e+09 1.05842579e+09 1.05842583e+09 1.05842587e+09
 1.05842591e+09 1.05842595e+09 1.05842599e+09 1.05842603e+09
 1.05842607e+09 1.05842611e+09 1.05842615e+09 1.05842619e+09
 1.05842623e+09 1.05842627e+09 1.05842631e+09 1.05842635e+09
 1.05842639e+09 1.05842643e+09 1.05842647e+09 1.05842651e+09
 1.05842655e+09 1.05842659e+09 1.05842663e+09 1.05842667e+09
 1.05842671e+09 1.05842675e+09 1.05842679e+09 1.05842683e+09
 1.05842687e+09 1.05842691e+09 1.05842696e+09 1.05842700e+09
 1.05842704e+09 1.05842708e+09 1.05842712e+09 1.05842716e+09
 1.05842720e+09 1.05842724e+09 1.05842728e+09 1.05842732e+09
 1.05842736e+09 1.05842740e+09 1.05842744e+09 1.05842748e+09
 1.05842752e+09 1.05842756e+09 1.05842760e+09 1.05842764e+09
 1.05842768e+09 1.05842772e+09 1.05842776e+09 1.05842780e+09
 1.05842784e+09 1.05842788e+09 1.05842792e+09 1.05842796e+09
 1.05842800e+09 1.05842804e+09 1.05842808e+09 1.05842812e+09
 1.05842816e+09 1.05842820e+09 1.05842824e+09 1.05842828e+09
 1.05842832e+09 1.05842836e+09 1.05842840e+09 1.05842844e+09
 1.05842848e+09 1.05842852e+09 1.05842856e+09 1.05842860e+09
 1.05842864e+09 1.05842868e+09 1.05842872e+09 1.05842876e+09
 1.05842880e+09 1.05842884e+09 1.05842888e+09 1.05842892e+09
 1.05842896e+09 1.05842900e+09 1.05842904e+09 1.05842908e+09
 1.05842912e+09 1.05842916e+09 1.05842920e+09 1.05842924e+09
 1.05842928e+09 1.05842932e+09 1.05842936e+09 1.05842940e+09
 1.05842944e+09 1.05842948e+09 1.05842952e+09 1.05842956e+09
 1.05842960e+09 1.05842964e+09 1.05842968e+09 1.05842972e+09
 1.05842976e+09 1.05842980e+09 1.05842984e+09 1.05842988e+09
 1.05842992e+09 1.05842996e+09 1.05843000e+09 1.05843004e+09
 1.05843008e+09 1.05843012e+09 1.05843016e+09 1.05843020e+09
 1.05843024e+09 1.05843028e+09 1.05843032e+09 1.05843036e+09
 1.05843040e+09 1.05843044e+09 1.05843048e+09 1.05843052e+09
 1.05843056e+09 1.05843060e+09 1.05843064e+09 1.05843068e+09
 1.05843072e+09 1.05843076e+09 1.05843080e+09 1.05843084e+09
 1.05843088e+09 1.05843092e+09 1.05843096e+09 1.05843100e+09
 1.05843104e+09 1.05843108e+09 1.05843112e+09 1.05843116e+09
 1.05843120e+09 1.05843124e+09 1.05843128e+09 1.05843132e+09
 1.05843136e+09 1.05843140e+09 1.05843144e+09 1.05843148e+09
 1.05843152e+09 1.05843156e+09 1.05843160e+09 1.05843164e+09
 1.05843168e+09 1.05843172e+09 1.05843176e+09 1.05843180e+09
 1.05843184e+09 1.05843188e+09 1.05843192e+09 1.05843196e+09
 1.05843200e+09 1.05843204e+09 1.05843208e+09 1.05843212e+09
 1.05843216e+09 1.05843220e+09 1.05843224e+09 1.05843228e+09
 1.05843232e+09 1.05843236e+09 1.05843240e+09 1.05843244e+09
 1.05843248e+09 1.05843252e+09 1.05843256e+09 1.05843260e+09
 1.05843264e+09 1.05843268e+09 1.05843272e+09 1.05843276e+09
 1.05843280e+09 1.05843284e+09 1.05843288e+09 1.05843292e+09
 1.05843296e+09 1.05843300e+09 1.05843304e+09 1.05843308e+09
 1.05843312e+09 1.05843316e+09 1.05843320e+09 1.05843324e+09
 1.05843328e+09 1.05843332e+09 1.05843336e+09 1.05843340e+09
 1.05843344e+09 1.05843348e+09 1.05843352e+09 1.05843356e+09
