name =JUICE_ROI_CAL_J_01
flyby =  ['2033 MAR 04 14:44:09', '2033 MAR 05 14:44:09']
Observation TW =  <SpiceCell dtype = 1, length = 0, size = 4200, card = 22, is_set = 1, adjust = 0, init = 1, base = 3143837095872, data = 3143837095920>
Cov(t) =  [3030990.89358552 3019282.8554781  3007598.37061586 2995937.47089945
 2984300.18815979 2972686.55415701 2961096.60057948 2949530.35904267
 2937987.86108821 2926469.13818275 2914974.22171692 2903503.1430043
 2892055.9332803  2880632.62370113 2869233.24703823 2857857.8308914
 2846506.40787176 2835179.00880773 2823875.66444301 2812596.40543552
 2801341.26235624 2790110.26568809 2778903.44582486 2767720.83306996
 2756562.45763542 2745428.34964063 2734318.53911127 2723233.05597808
 2712171.93007577 2701135.19114179 2690122.8688152  2679134.99263549
 2668171.59204135 2657232.69636953 2646318.33485363 2635428.53662288
 2624563.33070094 2613722.74600473 2602906.81134314 2592115.55541586
 2581349.00681214 2570607.19400954 2559890.14696661 2549197.89074264
 2538530.45507161 2527887.86797208 2517270.1573445  2506677.35097016
 2496109.47650981 2485566.56150248 2475048.63336413 2464555.7193864
 2454087.84673532 2443645.04244997 2433227.33344124 2422834.74649046
 2412467.30824814 2402125.04523263 2391807.9838288  2381516.15028671
 2371249.57072029 2361008.27110599 2350792.27728145 2340601.61494416
 2330436.30965009 2320296.38681237 2310181.87169988 2300092.78943595
 2290029.16499694 2279991.0232109  2269978.39024515 2259991.28764522
 2250029.74127869 2240093.77536652 2230183.41397444 2220298.68101154
 2210439.60022887 2200606.19521804 2190798.4894098  2181016.50607266
 2171260.26831146 2161529.79906591 2151825.12110925 2142146.25704674
 2132493.22931429 2122866.06017701 2113264.77172775 2103689.38588571
 2094139.92439494 2084616.40882297 2075118.86055927 2065647.30081386
 2056201.75061587 2046782.23081201 2037388.76206522 2028021.36485307
 2018680.05946644 2009364.86600794 2000075.8057717  1990812.89571417
 1981576.15675386 1972365.60822606 1963181.26926991 1954023.15882741
 1944891.29564201 1935785.69825707 1926706.38501442 1917653.37405286
 1908626.68330669 1899626.33050422 1890652.33316626 1881704.70860469
 1872783.47392089 1863888.64600436 1855020.24153113 1846178.27696232
 1837362.76854263 1828573.7322989  1819811.18403853 1811075.13934805
 1802365.61359165 1793682.62190962 1785026.17921688 1776396.30020155
 1767792.99932336 1759216.29208733 1750666.18993794 1742142.70792
 1733645.85956501 1725175.65816868 1716732.11678944 1708315.24824694
 1699925.06512063 1691561.57974818 1683224.80422409 1674914.75039814
 1666631.42987396 1658374.85400753 1650145.03390571 1641941.98042475
 1633765.70416887 1625616.21548874 1617493.52448002 1609397.64098194
 1601328.5745758  1593286.33458353 1585270.93006623 1577282.36982273
 1569320.66238812 1561385.81603236 1553477.83875877 1545596.73830266
 1537742.52212986 1529915.19859878 1522114.77230108 1514341.25105449
 1506594.64123969 1498874.94895451 1491182.18001774 1483516.33996876
 1475877.43406612 1468265.46728619 1460680.44432176 1453122.36958071
 1445591.24718462 1438087.08096741 1430609.87447404 1423159.63095912
 1415736.3533856  1408340.04442346 1400970.70644839 1393628.34154045
 1386312.95148282 1379024.53776049 1371763.10155896 1364528.64376301
 1357321.1649554  1350140.66541563 1342987.14511871 1335860.6037339
 1328761.04062351 1321688.45589278 1314642.84618026 1307624.21097527
 1300632.54840025 1293667.85626476 1286730.13206424 1279819.37297897
 1272935.57587282 1266078.73729222 1259248.85346503 1252445.9202994
 1245669.93338272 1238920.88798058 1232198.77903564 1225503.60116666
 1218835.34866741 1212194.01550572 1205579.59532241 1198992.08143034
 1192431.46681348 1185897.74412789 1179390.90570108 1172910.94352456
 1166457.84925695 1160031.61422327 1153632.22941405 1147259.68548446
 1140913.97275349 1134595.082142   1128303.00141244 1122037.72081328
 1115799.22931077 1109587.51553107 1103402.56775953 1097244.37393999
 1091112.92167406 1085008.19822052 1078930.19049461 1072878.88506745
 1066854.26816543 1060856.32566963 1054885.04311526 1048940.40569113
 1043022.39823914 1037131.00525378 1031266.21088166 1025427.99892111
 1019616.3528217  1013831.25568389 1008072.69025863 1002340.63894706
  996635.08380012  990956.00651833  985303.38845147  979677.21059833
  974077.4544384   968504.09860032  962957.12386459  957436.50982425
  951942.23572057  946474.28044297  941032.62252894  935617.24016405
  930228.11118197  924865.21306443  919528.52294137  914218.01759175
  908933.67344279  903675.46656972  898443.37269649  893237.36719596
  888057.42509025  882903.52105092  877775.62939936  872673.7241071
  867597.7787962   862547.76673967  857523.66086193  852525.43373929
  847553.05760045  842606.5043271   837685.74545447  832790.75217196
  827921.49604696  823077.94612923  818260.0733018   813467.84737784
  808701.23782837  803960.21378315  799244.74403155  794554.7970235
  789890.3408704   785251.34334623  780637.77188848  776049.59359935
  771486.77524677  766949.28326567  762437.08375913  757950.14249965
  753488.42493043  749051.89616676  744640.52099734  740254.26388573
  735893.08897183  731556.96007335  727245.84068742  722959.69399217
  718698.48284834  714462.16980102  710250.71708138  706064.0866084
  701902.24060907  697765.13915088  693652.74385105  689565.01539832
  685501.91417878  681463.40027795  677449.43348292  673459.9732845
  669494.97887945  665554.40917275  661638.2227799   657746.37802932
  653878.83296471  650035.54534759  646216.47265977  642421.57210593
  638650.80061626  634904.1148491   631181.47119369  627482.82577293
  623808.13444623  620157.35281235  616530.4362124   612927.33973273
  609348.01820805  605792.42622449  602260.51812272  598752.24800121
  595267.5702365   591806.43741465  588368.80344771  584954.62149821
  581563.84450321  578196.42517784  574852.31601887  571531.46930833
  568233.83711721  564959.37130915  561708.02354429  558479.74528308
  555274.48779016  552092.20213837  548932.8392127   545796.34971439
  542682.68416502  539591.79291071  536523.62612876  533478.13383858
  530455.2658864   527454.97195842  524477.20158688  521521.90415456
  518589.02889929  515678.52491862  512790.34117448  509924.42692298
  507080.73001557  504259.19946428  501459.78373639  498682.4311877
  495927.09006762  493193.70852415  490482.23460902  487792.61628284
  485124.80142032  482478.73781554  479854.37318725  477251.65518425
  474670.5313908   472110.9493321   469572.85647982  467056.20025763
  464560.92804687  462086.98719219  459634.32500727  457202.88878059
  454792.62578124  452403.48326477  450035.40847913  447688.34867055
  445362.25108963  443057.06299727  440772.73167087  438509.20474584
  436266.42887679  434044.35176592  431842.92081802  429662.08348553
  427501.78727485  425361.97975248  423242.60855147  421143.62137787
  419064.9660172   417006.59034091  414968.44231299  412950.46999647
  410952.62156007  408974.84528482  407017.0895707   405079.30294336
  403161.43406086  401263.43172035  399385.24486491  397526.82259031
  395688.11415184  393869.06897116  392069.63664316  390289.76694283
  388529.40983218  386788.51546716  385067.03420458  383364.91686106
  381682.11370915  380018.57600487  378374.25497814  376749.10209459
  375143.06906256  373556.10784018  371988.17064228  370439.20994748
  368909.17850516  367398.0293425   365905.71577148  364432.19139589
  362977.41011832  361541.32614718  360123.89400369  358725.06852798
  357344.80488333  355983.05857063  354639.78543214  353314.94165776
  352008.48379187  350720.36874027  349450.55377696  348198.996551
  346965.6550933   345750.48782337  344553.45355609  343374.51168255
  342213.62147728  341070.74315815  339945.83718804  338838.86445831
  337749.78629532  336678.56446687  335625.16118862  334589.53913045
  333571.66142281  332571.49166296  331588.99392114  330624.1327468
  329676.87317464  328747.18073067  327835.02143818  326940.36182362
  326063.16892249  325203.41028506  324361.05398215  323536.06861066
  322728.42329922  321938.08771363  321165.03206227  320409.22710144
  319670.64414057  318949.25504744  318245.03235677  317557.94885839
  316887.97823127  316235.09462632  315599.27277727  314980.4880053
  314378.71622356  313793.93394161  313226.11826973  312675.2469232
  312141.2982264   311624.25111682  311124.08514904  310640.78049852
  310174.31796528  309724.67897754  309291.84559521  308875.80051324
  308476.52706489  308094.00922491  307728.23161255  307379.17949446
  307046.83878752  306731.1960615   306432.23854164  306149.95411106
  305884.33131309  305635.35935346  305403.02813573  305187.32812731
  304988.25056888  304805.78733518  304639.93097245  304490.67469985
  304358.01241073  304241.93867388  304142.44873452  304059.53851523
  303993.20461677  303943.44431869  303910.25557989  303893.63703902
  303893.588016    303910.10851712  303943.19922185  303992.86148839
  304059.09735474  304141.90953833  304241.30143545  304357.2771206
  304489.84134568  304638.99953908  304804.7578046   304987.1229203
  305186.10233715  305401.70417761  305633.93719825  305882.81092884
  306148.33546307  306430.5215924   306729.38077074  307044.92511214
  307377.16738857  307726.12102746  308091.8001091   308474.21936399
  308873.39417008  309289.34054979  309722.07516701  310171.61532396
  310637.97895791  311121.1846378   311621.25156081  312138.19954866
  312672.04904401  313222.82110658  313790.53740924  314375.220234
  314976.89246787  315595.57759866  316231.29971056  316884.08347983
  317553.95417018  318240.93762821  318945.06017253  319666.34901088
  320404.83160622  321160.53608851  321933.49114609  322723.72602053
  323531.27050137  324356.15492082  325198.41014832  326058.0675851
  326935.1591586   327829.71731685  328741.77502275  329671.36574832
  330618.52346885  331583.28265698  332565.67827675  333565.74577757
  334583.52108808  335619.04061006  336672.34121217  337743.46022371
  338832.43542831  339939.30505754  341064.1077845   342206.88271738
  343367.66939292  344546.507593    345743.43804286  346958.50135126
  348191.73870331  349443.19167952  350712.90224906  352000.91276305
  353307.26594771  354632.00489754  355975.17306849  357336.81427108
  358716.97266348  360115.69274593  361533.01936006  362968.99766693
  364423.67314559  365897.09158788  367389.29909138  368900.34205242
  370430.26715911  371979.12138432  373546.95197867  375133.80646352
  376739.73262395  378364.77850179  380008.99238856  381672.4228185
  383355.11856159  385057.12836165  386778.501946    388519.28849788
  390279.53766039  392059.29927747  393858.62338707  395677.56021416
  397516.16016386  399374.47381461  401252.55191122  403150.4453581
  405068.20521245  407005.88267743  408963.52909542  410941.19594126
  412938.93481557  414956.79743803  416994.83564074  419053.10136157
  421131.64663759  423230.5235985   425349.78446005  427489.48151764
  429649.66713973  431830.3937615   434031.71388088  436253.6800504
  438496.34486736  440759.7606317   443043.98069098  445349.057412
  447675.04351969  450021.99175544  452389.95487106  454778.98562271
  457189.13676492  459620.46104465  462073.01119534  464546.83993111
  467041.9999409   469558.54388273  472096.52437794  474655.99400561
  477237.00529683  479839.61072919  482463.86272128  485109.81362714
  487777.51573093  490467.02124149  493178.38228705  495911.65090999
  498666.87906156  501444.1185968   504243.42126936  507064.8387265
  509908.42250406  512774.22359313  515662.29414538  518572.68490786
  521505.44692184  524460.63109297  527438.28818661  530438.46882325
  533461.22347391  536506.60245561  539574.65592571  542665.43386994
  545778.98611459  548915.36231678  552074.61195815  555256.78434063
  558461.92858242  561690.09361382  564941.32817333  568215.6808036
  571513.19984761  574833.93344479  578177.92952725  581545.23581603
  584935.89981744  588349.96881941  591787.48988795  595248.50986362
  598733.07483748  602241.23222654  605773.02765738  609328.50703469
  612907.71602096  616510.70003326  620137.50424012  623788.17355844
  627462.75265044  631161.28592071  634883.81751325  638630.39130861
  642401.05092109  646195.83969591  650014.80070654  653857.976752
  657725.4103543   661617.14375577  665533.21891664  669473.67751254
  673438.56093207  677427.91027446  681441.76634723  685480.16966396
  689543.16044202  693630.77860046  697743.06375785  701880.05523022
  706041.79140751  710228.31223418  714439.65548879  718675.85925732
  722936.96131355  727222.99911734  731534.00981281  735870.0302267
  740231.09686671  744617.2459199   749028.51325112  753464.93440153
  757926.54458707  762413.3786971   766925.471293    771462.8566068
  776025.56853992  780613.6406619   785227.10620918  789865.99808396
  794530.34885306  799220.19074679  803935.55565795  808676.47514084
  813442.98041023  818235.10234046  823052.87146458  827896.31797346
  832765.47098807  837660.36146256  842581.0178335   847527.46891534
  852499.74317671  857497.86873974  862521.8733795   867571.78452343
  872647.62925085  877749.43429244  882877.22602982  888031.03049509
  893210.8733705   898416.7799881   903648.77532938  908906.88402502
  914191.13035465  919501.5382466   924838.13127775  930200.93267147
  935589.96529961  941005.25168392  946446.81399431  951914.67404875
  957408.85331338  962929.37290239  968476.25357823  974049.51575155
  979649.17864564  985275.26363562  990927.7892459   996606.77448155
 1002312.23799675 1008044.19809498 1013802.67272933 1019587.67950278
 1025399.23566851 1031237.35813024 1037102.06344267 1042993.36781175
 1048911.28709523 1054855.83680299 1060827.03209759 1066824.88779469
 1072849.41836363 1078900.6379279  1084978.56026571 1091083.19881062
 1097214.56665204 1103372.67653596 1109557.5408655  1115769.17170161
 1122007.58076375 1128272.77943059 1134564.77874073 1140883.58845057
 1147229.22080251 1153601.68488059 1160000.99037068 1166427.14662251
 1172880.16265042 1179360.04713425 1185866.8084202  1192400.45452175
 1198960.9931205  1205548.43156798 1212162.77688644 1218804.03576732
 1225472.21457389 1232167.31934232 1238889.35578265 1245638.32927981
 1252414.24489467 1259217.10736508 1266046.92110689 1272903.6902151
 1279787.41846487 1286698.10931269 1293635.76589744 1300600.39104155
 1307591.98725211 1314610.55672208 1321656.10133138 1328728.62159305
 1335828.12087071 1342954.59906134 1350108.05680474 1357288.49443371
 1364495.91197528 1371730.30915195 1378991.68538293 1386280.03978542
 1393595.37117587 1400937.67807129 1408306.95869046 1415703.21095532
 1423126.43249225 1430576.62063334 1438053.77241777 1445557.88459313
 1453088.95361672 1460646.97565695 1468231.94659465 1475843.86202447
 1483482.71725619 1491148.50731617 1498841.22694865 1506560.87061721
 1514307.43250609 1522080.90652165 1529881.28629371 1537708.56401201
 1545562.73509833 1553443.79119921 1561351.72485269 1569286.52832726
 1577248.19362329 1585236.71247443 1593252.07634908 1601294.27645183
 1609363.30372486 1617459.14884945 1625581.80224741 1633731.25408249
 1641907.49426192 1650110.51243781 1658340.29800867 1666596.8401208
 1674880.12766984 1683190.14930222 1691526.89341663 1699890.34816548
 1708280.50145644 1716697.34095384 1725140.85408026 1733611.02801791
 1742107.84971019 1750631.30586317 1759181.38294707 1767758.06591868
 1776361.34333515 1784991.19969301 1793647.62053403 1802330.59117161
 1811040.09669224 1819776.12195706 1828538.65160333 1837327.6700459
 1846143.16147875 1854985.10987648 1863853.49899579 1872748.31237696
 1881669.53334542 1890617.14501314 1899591.13028024 1908591.47183637
 1917618.1521623  1926671.15353133 1935750.45801088 1944856.04746384
 1953987.90355022 1963146.00772848 1972330.34125715 1981540.88519622
 1990777.62041199 2000040.52757431 2009329.58577146 2018644.77805041
 2027986.08311949 2037353.48087855 2046746.95103914 2056166.47312609
 2065612.02647888 2075083.59025316 2084581.14342217 2094104.66477823
 2103654.13293417 2113229.52632477 2122830.82320823 2132458.00166762
 2142111.03961228 2151789.9147793  2161494.60473494 2171225.08687606
 2180981.33843154 2190763.33646374 2200571.05786986 2210404.47938342
 2220263.57757565 2230148.32885688 2240058.70947801 2249994.6955318
 2259956.26295442 2269943.38752671 2279956.04338288 2289994.20897917
 2300057.85814999 2310146.96606898 2320261.50776144 2330401.45810568
 2340566.79183441 2350757.48353606 2360973.50765621 2371214.83849886
 2381481.45022784 2391773.31686814 2402090.41230725 2412432.71029648
 2422800.18445232 2433192.80825773 2443610.55506351 2454053.39808958
 2464521.3104263  2475014.26503579 2485532.23475322 2496075.19228809
 2506643.1102252  2517235.96102473 2527853.71702683 2538496.35045143
 2549163.83339924 2559856.13785301 2570573.23408123 2581315.09702606
 2592081.69673005 2602873.00471673 2613688.99239792 2624529.63107499
 2635394.89194006 2646284.74607727 2657199.16446392 2668138.11797176
 2679101.57736813 2690089.51331724 2701101.89638129 2712138.69702168
 2723199.88560023 2734285.43238031 2745395.30752804 2756529.48111346
 2767687.92311167 2778870.60340403 2790077.49177924 2801308.55793456
 2812563.7714769  2823843.10192398 2835146.51870542 2846473.99116394
 2857825.48855638 2869200.98005489 2880600.43304884 2892023.81993898
 2903471.1079543  2914942.26593907 2926437.2626583  2937956.06679882
 2949498.64697038 2961064.97170668 2972655.00946647 2984268.72863456
 2995906.09752291 3007567.08437166 3019251.65735016 3030959.78455802]
t =  [1.04687512e+09 1.04687512e+09 1.04687512e+09 1.04687512e+09
 1.04687512e+09 1.04687512e+09 1.04687512e+09 1.04687512e+09
 1.04687512e+09 1.04687513e+09 1.04687513e+09 1.04687513e+09
 1.04687513e+09 1.04687513e+09 1.04687513e+09 1.04687513e+09
 1.04687513e+09 1.04687513e+09 1.04687513e+09 1.04687513e+09
 1.04687513e+09 1.04687514e+09 1.04687514e+09 1.04687514e+09
 1.04687514e+09 1.04687514e+09 1.04687514e+09 1.04687514e+09
 1.04687514e+09 1.04687514e+09 1.04687514e+09 1.04687514e+09
 1.04687514e+09 1.04687514e+09 1.04687515e+09 1.04687515e+09
 1.04687515e+09 1.04687515e+09 1.04687515e+09 1.04687515e+09
 1.04687515e+09 1.04687515e+09 1.04687515e+09 1.04687515e+09
 1.04687515e+09 1.04687515e+09 1.04687516e+09 1.04687516e+09
 1.04687516e+09 1.04687516e+09 1.04687516e+09 1.04687516e+09
 1.04687516e+09 1.04687516e+09 1.04687516e+09 1.04687516e+09
 1.04687516e+09 1.04687516e+09 1.04687516e+09 1.04687517e+09
 1.04687517e+09 1.04687517e+09 1.04687517e+09 1.04687517e+09
 1.04687517e+09 1.04687517e+09 1.04687517e+09 1.04687517e+09
 1.04687517e+09 1.04687517e+09 1.04687517e+09 1.04687518e+09
 1.04687518e+09 1.04687518e+09 1.04687518e+09 1.04687518e+09
 1.04687518e+09 1.04687518e+09 1.04687518e+09 1.04687518e+09
 1.04687518e+09 1.04687518e+09 1.04687518e+09 1.04687518e+09
 1.04687519e+09 1.04687519e+09 1.04687519e+09 1.04687519e+09
 1.04687519e+09 1.04687519e+09 1.04687519e+09 1.04687519e+09
 1.04687519e+09 1.04687519e+09 1.04687519e+09 1.04687519e+09
 1.04687520e+09 1.04687520e+09 1.04687520e+09 1.04687520e+09
 1.04687520e+09 1.04687520e+09 1.04687520e+09 1.04687520e+09
 1.04687520e+09 1.04687520e+09 1.04687520e+09 1.04687520e+09
 1.04687520e+09 1.04687521e+09 1.04687521e+09 1.04687521e+09
 1.04687521e+09 1.04687521e+09 1.04687521e+09 1.04687521e+09
 1.04687521e+09 1.04687521e+09 1.04687521e+09 1.04687521e+09
 1.04687521e+09 1.04687522e+09 1.04687522e+09 1.04687522e+09
 1.04687522e+09 1.04687522e+09 1.04687522e+09 1.04687522e+09
 1.04687522e+09 1.04687522e+09 1.04687522e+09 1.04687522e+09
 1.04687522e+09 1.04687522e+09 1.04687523e+09 1.04687523e+09
 1.04687523e+09 1.04687523e+09 1.04687523e+09 1.04687523e+09
 1.04687523e+09 1.04687523e+09 1.04687523e+09 1.04687523e+09
 1.04687523e+09 1.04687523e+09 1.04687524e+09 1.04687524e+09
 1.04687524e+09 1.04687524e+09 1.04687524e+09 1.04687524e+09
 1.04687524e+09 1.04687524e+09 1.04687524e+09 1.04687524e+09
 1.04687524e+09 1.04687524e+09 1.04687524e+09 1.04687525e+09
 1.04687525e+09 1.04687525e+09 1.04687525e+09 1.04687525e+09
