name =JUICE_ROI_CAL_J_01
flyby =  ['2033 JUL 16 02:11:44', '2033 JUL 17 02:11:44']
Observation TW =  <SpiceCell dtype = 1, length = 0, size = 4200, card = 22, is_set = 1, adjust = 0, init = 1, base = 3143837095872, data = 3143837095920>
Cov(t) =  [3030728.53831083 3019021.40036905 3007337.81455695 2995677.81277241
 2984041.42511457 2972428.6868027  2960839.62779002 2949274.27968958
 2937732.67404062 2926214.84230749 2914720.81587864 2903250.62606548
 2891804.30240055 2880381.87944328 2868983.38656325 2857608.85475313
 2846258.31492313 2834931.79789996 2823629.33442573 2812350.95348092
 2801096.68899028 2789866.56975588 2778660.62617009 2767478.88853505
 2756321.38706146 2745188.15186754 2734079.21297773 2722994.5986747
 2711934.34208964 2700898.47130955 2689887.01598497 2678900.00565741
 2667937.4697643  2656999.43764092 2646085.93851933 2635196.99990925
 2624332.65407195 2613492.92830089 2602677.85140296 2591887.45207569
 2581121.75890607 2570380.80036927 2559664.60323527 2548973.19893992
 2538306.6140197  2527664.87649016 2517048.01424879 2506456.05507378
 2495889.02662273 2485346.95643142 2474829.87034997 2464337.79879534
 2453870.76736385 2443428.80309101 2433011.93288408 2422620.1835207
 2412253.58164762 2401912.152243   2391595.92476436 2381304.92391772
 2371039.17581306 2360798.70642285 2350583.54158072 2340393.7069801
 2330229.2281729  2320090.12906188 2309976.43792816 2299888.17838089
 2289825.37539234 2279788.05378642 2269776.23823739 2259789.95326842
 2249829.22177049 2239894.07092378 2229984.52330641 2220100.60282346
 2210242.33322199 2200409.73808963 2190602.84085322 2180821.66477738
 2171066.23151391 2161336.56690093 2151632.69225489 2141954.63017736
 2132302.40310061 2122676.0332915  2113075.54284472 2103500.95367582
 2093952.28610684 2084429.56454227 2074932.80894565 2065462.04052332
 2056017.28030066 2046598.54912066 2037205.86764249 2027839.25494866
 2018498.73411278 2009184.3238385  1999896.04403498 1990633.91442022
 1981397.95451956 1972188.18366425 1963004.62098997 1953847.28407514
 1944716.19438409 1935611.36909278 1926532.82653979 1917480.58486068
 1908454.66198655 1899455.07564257 1890481.84201368 1881534.98107813
 1872614.50859762 1863720.4414586  1854852.79633415 1846011.58968246
 1837196.83774532 1828408.55654666 1819646.76058972 1810911.46806479
 1802202.69302794 1793520.45061667 1784864.75574315 1776235.62309267
 1767633.06712224 1759057.10078536 1750507.74062915 1741984.99913905
 1733488.88984379 1725019.42603634 1716576.62077236 1708160.48686878
 1699771.03690225 1691408.28196575 1683072.23663883 1674762.91152258
 1666480.3182178  1658224.46807765 1649995.37220611 1641793.0414566
 1633617.4864306  1625468.71626644 1617346.74348115 1609251.57669687
 1601183.2254919  1593141.69918512 1585127.00683455 1577139.15723588
 1569178.15773888 1561244.01897863 1553336.74776905 1545456.35184213
 1537602.8386604  1529776.2154154  1521976.48902635 1514203.66613869
 1506457.7519725  1498738.75492581 1491046.67966012 1483381.53171174
 1475743.31633621 1468132.0385069  1460547.70291368 1452990.31283937
 1445459.87465096 1437956.39105339 1430479.86558879 1423030.30150898
 1415607.70177414 1408212.06905151 1400843.40571402 1393501.71274897
 1386186.99412092 1378899.25021808 1371638.48222325 1364404.69101848
 1357197.87718381 1350018.04099602 1342865.1813654  1335739.30008639
 1328640.39545254 1321568.4665152  1314523.51201629 1307505.53038716
 1300514.51974738 1293550.47790355 1286613.40131831 1279703.28923266
 1272820.13747357 1265963.94258438 1259134.70079278 1252332.40800595
 1245557.05980787 1238808.65045875 1232087.17690524 1225392.63275655
 1218725.01230264 1212084.3095074  1205470.51800764 1198883.63111215
 1192323.64180071 1185790.54175333 1179284.32523248 1172804.98325149
 1166352.50746475 1159926.88919304 1153528.11942268 1147156.18880468
 1140811.08765391 1134492.80501044 1128201.33239405 1121936.65816454
 1115698.77128422 1109487.6603754  1103303.3137196  1097145.7192569
 1091014.86367532 1084910.73605388 1078833.32239039 1072782.60925254
 1066758.58286335 1060761.22910064 1054790.53349643 1048846.48123646
 1042929.05628141 1037038.24488326 1031174.03030368 1025336.39633826
 1019525.326434   1013740.80368887 1007982.81085143 1002251.32946996
  996546.34329831  990867.8331804   985215.78046405  979590.16614622
  973990.97087276  968418.17493829  962871.75828598  957351.69968839
  951857.98002832  946390.57737118  940949.47025359  935534.63686026
  930146.05502408  924783.7022261   919447.55480382  914137.59112232
  908853.78681197  903596.11794743  898364.56025213  893159.0890985
  887979.6795082   882826.30615241  877698.9425914   872597.56432169
  867522.14420041  862472.65550024  857449.0711453   852451.36371156
  847479.50542741  842533.46817421  837613.22275688  832718.74182821
  827849.99549829  823006.95426652  818189.58828855  813397.86737704
  808631.76100252  803891.23759095  799176.26734137  794486.81799598
  789822.85766552  785184.3541232   780571.27480571  775983.58681436
  771421.2569162   766884.25087217  762372.53613404  757886.07779649
  753424.84130157  748988.79176334  744577.89396926  740192.11238156
  735831.410492    731495.75341415  727185.10399318  722899.42540568
  718638.68051088  714402.83184559  710191.84163155  706005.67178638
  701844.28330041  697707.63871073  693595.69838925  689508.42302425
  685445.77300163  681407.70840693  677394.18902745  673405.1737629
  669440.62299735  665500.49504142  661584.7485116   657693.34173743
  653826.23276395  649983.37935411  646164.73899134  642370.26831941
  638599.92539917  634853.66632469  631131.44748726  627433.22501188
  623758.95476016  620108.59233311  616482.09307412  612879.41153778
  609300.50363291  605745.32341036  602213.82521319  598705.96314223
  595221.69105931  591760.96259053  588323.73062011  584909.94933538
  581519.57116262  578152.54881912  574808.83480377  571488.38140065
  568191.1406827   564917.06451548  561666.1040791   558438.21180287
  555233.33846783  552051.43514839  548892.45273104  545756.34191843
  542643.0532335   539552.53656561  536484.74300989  533439.62211093
  530417.1237144   527417.19750847  524439.79302755  521484.8596567
  518552.34663631  515642.20263542  512754.37748458  509888.81958336
  507045.47763993  504224.30024134  501425.23585843  498648.23285077
  495893.23906349  493160.20346822  490449.07370945  487759.7977521
  485092.32347533  482446.5986778   479822.57108292  477220.18834428
  474639.39766876  472080.14735427  469542.38449206  467026.05651092
  464531.1107974   462057.4947014   459605.15554189  457174.04061272
  454764.09683145  452375.272176    450007.51353969  447660.76817423
  445334.98333565  443030.10629034  440746.08432115  438482.86439836
  436240.39452936  434018.621745    431817.49345547  429636.95712004
  427476.96025225  425337.45042354  423218.37527188  421119.68219746
  419041.3196149   416983.23508668  414945.37658143  412927.69216683
  410930.13001617  408952.63841505  406995.16547834  405057.66031858
  403140.07130572  401242.3472415   399364.43707359  397506.2899024
  395667.85498791  393849.08175651  392049.9195417   390270.3186586
  388510.22880508  386769.60014214  385048.3830317   383346.52804365
  381663.98596275  380000.70754966  378356.64453469  376731.74814039
  375125.97008098  373539.2623206   371971.57708028  370422.86684494
  368893.08437047  367382.18246734  365890.11490383  364416.83506454
  362962.29685921  361526.45450354  360109.26252619  358710.67577632
  357330.64943356  355969.13880687  354626.1001513   353301.48946052
  351995.26328661  350707.37854299  349437.79251128  348186.46284812
  346953.34740991  345738.40499051  344541.59422749  343362.87434521
  342202.20497671  341059.54617031  339934.85839625  338828.10255321
  337739.23981418  336668.23227814  335615.04200467  334579.63167084
  333561.96441425  332562.00383929  331579.7140233   330615.05938063
  329668.00524001  328738.51698968  327826.56065993  326932.10278422
  326055.11040501  325195.55107953  324353.39288553  323528.60430545
  322721.15472021  321931.01367853  321158.15139569  320402.53863487
  319664.14671238  318942.94750288  318238.91334093  317552.01744239
  316882.23328095  316229.53501439  315593.89738333  314975.29571581
  314373.70593185  313789.10454789  313221.46859794  312670.77597304
  312137.00491876  311620.13437954  311120.14391688  310637.01371317
  310170.72457541  309721.2579388   309288.59580713  308872.72101109
  308473.61682538  308091.26723182  307725.65685676  307376.77097399
  307044.59550754  306729.11698873  306430.32274387  306148.2006152
  305882.73915341  305633.92757161  305401.75574745  305186.21422505
  304987.29421682  304804.98757929  304639.28692065  304490.18543952
  304357.67703718  304241.75629042  304142.41845258  304059.65945449
  303993.47589664  303943.86508679  303910.82498142  303894.35422796
  303894.45214583  303911.11869516  303944.35455672  303994.1610986
  304060.54037921  304143.49510493  304243.02868885  304359.14521315
  304491.84943691  304641.14679525  304807.04339831  304989.54605846
  305188.66217796  305404.39991043  305636.76805318  305885.77607145
  306151.43409661  306433.75292427  306732.74401216  307048.41952622
  307380.79214794  307729.8753537   308095.68322691  308478.23050099
  308877.53255663  309293.6054189   309726.46581983  310176.13093522
  310642.61876776  311125.94788854  311626.13749677  312143.20741616
  312677.17809121  313228.07058342  313795.90665309  314380.7084149
  314982.49884063  315601.30141949  316237.14023711  316890.03997102
  317560.02588618  318247.12383032  318951.36033529  319672.76219065
  320411.35706732  321167.1730961   321940.23896608  322730.58391951
  323538.23774651  324363.23090377  325205.59401572  326065.3586053
  326942.55660014  327837.22044837  328749.38311286  329679.07806551
  330626.33928134  331591.20137747  332573.6990304   333573.86783111
  334591.7437075   335627.36306045  336680.76275757  337751.98012701
  338841.05311438  339948.01962578  341072.91849336  342215.78882351
  343376.67015103  344555.60243256  345752.62604001  346967.7817539
  348201.11094153  349452.65481374  350722.45551886  352010.5554049
  353316.99719478  354641.82397958  355985.07921163  357346.80690158
  358727.05079858  360125.85559892  361543.26613242  362979.3275543
  364434.08533935  365907.5852751   367399.87345482  368910.99649676
  370441.00063521  371989.93306214  373557.84102392  375144.77203766
  376750.77388421  378375.89460115  380020.18247578  381683.68628697
  383366.45430559  385068.5357721   386789.9799027   388530.83612836
  390291.15408785  392070.98362082  393870.37502995  395689.3780005
  397528.04319936  399386.42120043  401264.56274398  403162.51872978
  405080.34021031  407018.07838393  408975.78488083  410953.51058847
  412951.3073921   414969.22700618  417007.32125747  419065.64207842
  421144.24150048  423243.17196135  425362.4850465   427502.23335596
  429662.46925202  431843.24516351  434044.6135825   436266.62705397
  438509.33816797  440772.79989387  443057.06422429  445362.18418896
  447688.21250494  450035.20190563  452403.2051347   454792.27494005
  457202.46442792  459633.82561975  462086.41159734  464560.27506611
  467055.46870623  469572.04516686  472110.05706047  474669.55695716
  477250.59776454  479853.23118335  482477.51000542  485123.48657576
  487791.21316944  490480.74198625  493192.12514539  495925.41468023
  498680.66294453  501457.92096473  504257.24089384  507078.67437031
  509922.27292125  512788.0879575   515676.17076873  518586.57295319
  521519.34467795  524474.53727167  527452.20149159  530452.38795014
  533475.14711044  536520.52928175  539588.58461591  542679.36356617
  545792.91503456  548929.28912896  552088.53532353  555270.70291269
  558475.84100692  561703.99852878  564955.22469413  568229.56707042
  571527.07447436  574847.79503709  578191.77668233  581559.06712264
  584949.71385568  588363.7641607   591801.26560791  595262.26400634
  598746.8064682   602254.93936371  605786.70882736  609342.16075458
  612921.34079852  616524.29490457  620151.06715997  623801.70300628
  627476.24709621  631174.74382478  634897.23732641  638643.77147209
  642414.38986647  646209.13641148  650028.05304209  653871.18311044
  657738.56912897  661630.25333057  665546.27766601  669486.68380153
  673451.51311641  677440.80729585  681454.60595141  685492.95017915
  689555.88018746  693643.43588648  697755.656886    701892.58249337
  706054.25233238  710240.70386145  714451.97608593  718688.10708788
  722949.13464287  727235.09620326  731546.02890531  735881.96956783
  740242.95534116  744629.02110704  749040.20336919  753476.53766075
  757938.05918968  762424.80283731  766936.80315696  771474.09504938
  776036.71105809  780624.68541754  785238.05135608  789876.84176773
  794541.08921117  799230.82590854  803946.08374448  808686.89497216
  813453.2893878   818245.29856085  823062.95301613  827906.28293633
  832775.31816114  837670.08818651  842590.62289775  847536.94963734
  852509.09759573  857507.09488695  862530.96927794  867580.74818807
  872656.4586886   877758.12750219  882885.78176712  888039.44598213
  893219.14658236  898424.90889199  903656.75788471  908914.71818346
  914198.81406016  919509.06943552  924845.50867457  930208.15340751
  935597.02729223  941012.15284305  946453.55222244  951921.24724104
  957415.25935692  962935.61049928  968482.31978127  974055.40842582
  979654.89648508  985280.80365983  990933.14929955  996611.95240264
 1002317.23161667 1008049.00609311 1013807.29207341 1019592.10800472
 1025403.47113385 1031241.39835822 1037105.90622624 1042997.01093767
 1048914.72922633 1054859.07483553 1060830.06380003 1066827.71092952
 1072852.03068737 1078903.03719119 1084980.74421335 1091085.16518158
 1097216.31409356 1103374.20186555 1109558.84180504 1115770.24596735
 1122008.42606635 1128273.39347519 1134565.15922695 1140883.73495732
 1147229.12914182 1153601.35273584 1160000.41541993 1166426.3265385
 1172879.09510063 1179358.72978092 1185865.23892042 1192398.63150122
 1198958.91325617 1205546.0925007  1212160.1762504  1218801.1711919
 1225469.08368375 1232163.91975745 1238885.68511842 1245634.38615287
 1252410.02590943 1259212.61012019 1266042.14319395 1272898.62922115
 1279782.07197252 1286692.47490018 1293629.84217263 1300594.17454428
 1307585.47554802 1314603.74737274 1321648.99189438 1328721.21067715
 1335820.40497467 1342946.57573119 1350099.72464881 1357279.84992861
 1364486.95265602 1371721.03254993 1378982.08902602 1386270.12119797
 1393585.12787875 1400927.10867599 1408296.05962089 1415691.97972205
 1423114.86660243 1430564.71759072 1438041.52972274 1445545.29974265
 1453076.02410436 1460633.70009905 1468218.32135577 1475829.88458787
 1483468.38510171 1491133.81792011 1498826.17778382 1506545.45915282
 1514291.657362   1522064.76400964 1529864.7738721  1537691.68030041
 1545545.47637185 1553426.15489138 1561333.70839309 1569268.12914154
 1577229.41031951 1585217.54128852 1593232.51469554 1601274.32174163
 1609342.95336552 1617438.40024517 1625560.65279981 1633709.70240452
 1641885.53653913 1650088.14606288 1658317.52037134 1666573.648608
 1674856.5196657  1683166.1221882  1691502.44457157 1699865.47621165
 1708255.2025257  1716671.61241769 1725114.69330784 1733584.43237615
 1742080.81656384 1750603.83257487 1759153.46687741 1767729.70698298
 1776332.53634129 1784961.94199579 1793617.90948641 1802300.42412477
 1811009.47099563 1819745.03495845 1828507.10195408 1837295.65378914
 1846110.67595736 1854952.15243176 1863820.06696749 1872714.40310332
 1881635.14416316 1890582.27325751 1899555.77462169 1908555.62827437
 1917581.81802761 1926634.32615329 1935713.13471728 1944818.22558105
 1953949.58040306 1963107.18200442 1972291.0089178  1981501.04356184
 1990737.26679796 1999999.65929201 2009288.20151574 2018602.87374827
 2027943.6560776  2037310.52979725 2046703.47183072 2056122.46309189
 2065567.48291528 2075038.51045475 2084535.52468223 2094058.50438879
 2103607.42960838 2113182.27593393 2122783.02304109 2132409.64901192
 2142062.13175492 2151740.44900635 2161444.57833173 2171174.49712724
 2180930.18407421 2190711.61333217 2200518.76324709 2210351.61055205
 2220210.13181791 2230094.30345473 2240004.10171312 2249939.50268569
 2259900.48379201 2269887.01784952 2279899.08196489 2289936.65161263
 2299999.70211614 2310088.20864916 2320202.14623708 2330341.49126844
 2340506.21545973 2350696.29490592 2360911.70405276 2371152.41720455
 2381418.40852536 2391709.65204048 2402026.12163767 2412367.79260872
 2422734.63549386 2433126.62531279 2443543.73541662 2453985.9390256
 2464453.20923041 2474945.51899348 2485462.84271658 2496005.14998067
 2506572.41493379 2517164.61003831 2527781.7076348  2538423.67994331
 2549090.49906466 2559782.13697935 2570498.56714689 2581239.75812992
 2592005.68315714 2602796.31375214 2613611.62132683 2624451.57718265
 2635316.15251184 2646205.32002017 2657119.04744564 2668057.30727803
 2679020.07028482 2690007.30713039 2701018.9883771  2712055.08448656
 2723115.56582079 2734200.40429403 2745309.56677496 2756443.02498091
 2767600.74888724 2778782.70837558 2789988.87323497 2801219.21316296
 2812473.69776681 2823752.29824403 2835054.98066933 2846381.71606165
 2857732.47367826 2869107.22269174 2880505.93219104 2891928.57118266
 2903375.11029607 2914845.51497077 2926339.75567314 2937857.80109059
 2949399.6198334  2960965.18043588 2972554.45135738 2984167.40098333
 2995803.99935901 3007464.21126343 3019148.00659574 3030855.35345628]
t =  [1.05840757e+09 1.05840757e+09 1.05840758e+09 1.05840758e+09
 1.05840758e+09 1.05840758e+09 1.05840758e+09 1.05840758e+09
 1.05840758e+09 1.05840758e+09 1.05840758e+09 1.05840758e+09
 1.05840758e+09 1.05840758e+09 1.05840758e+09 1.05840759e+09
 1.05840759e+09 1.05840759e+09 1.05840759e+09 1.05840759e+09
 1.05840759e+09 1.05840759e+09 1.05840759e+09 1.05840759e+09
 1.05840759e+09 1.05840759e+09 1.05840759e+09 1.05840760e+09
 1.05840760e+09 1.05840760e+09 1.05840760e+09 1.05840760e+09
 1.05840760e+09 1.05840760e+09 1.05840760e+09 1.05840760e+09
 1.05840760e+09 1.05840760e+09 1.05840760e+09 1.05840760e+09
 1.05840761e+09 1.05840761e+09 1.05840761e+09 1.05840761e+09
 1.05840761e+09 1.05840761e+09 1.05840761e+09 1.05840761e+09
 1.05840761e+09 1.05840761e+09 1.05840761e+09 1.05840761e+09
 1.05840762e+09 1.05840762e+09 1.05840762e+09 1.05840762e+09
 1.05840762e+09 1.05840762e+09 1.05840762e+09 1.05840762e+09
 1.05840762e+09 1.05840762e+09 1.05840762e+09 1.05840762e+09
 1.05840762e+09 1.05840763e+09 1.05840763e+09 1.05840763e+09
 1.05840763e+09 1.05840763e+09 1.05840763e+09 1.05840763e+09
 1.05840763e+09 1.05840763e+09 1.05840763e+09 1.05840763e+09
 1.05840763e+09 1.05840764e+09 1.05840764e+09 1.05840764e+09
 1.05840764e+09 1.05840764e+09 1.05840764e+09 1.05840764e+09
 1.05840764e+09 1.05840764e+09 1.05840764e+09 1.05840764e+09
 1.05840764e+09 1.05840764e+09 1.05840765e+09 1.05840765e+09
 1.05840765e+09 1.05840765e+09 1.05840765e+09 1.05840765e+09
 1.05840765e+09 1.05840765e+09 1.05840765e+09 1.05840765e+09
 1.05840765e+09 1.05840765e+09 1.05840766e+09 1.05840766e+09
 1.05840766e+09 1.05840766e+09 1.05840766e+09 1.05840766e+09
 1.05840766e+09 1.05840766e+09 1.05840766e+09 1.05840766e+09
 1.05840766e+09 1.05840766e+09 1.05840766e+09 1.05840767e+09
 1.05840767e+09 1.05840767e+09 1.05840767e+09 1.05840767e+09
 1.05840767e+09 1.05840767e+09 1.05840767e+09 1.05840767e+09
 1.05840767e+09 1.05840767e+09 1.05840767e+09 1.05840768e+09
 1.05840768e+09 1.05840768e+09 1.05840768e+09 1.05840768e+09
 1.05840768e+09 1.05840768e+09 1.05840768e+09 1.05840768e+09
 1.05840768e+09 1.05840768e+09 1.05840768e+09 1.05840768e+09
 1.05840769e+09 1.05840769e+09 1.05840769e+09 1.05840769e+09
 1.05840769e+09 1.05840769e+09 1.05840769e+09 1.05840769e+09
 1.05840769e+09 1.05840769e+09 1.05840769e+09 1.05840769e+09
 1.05840770e+09 1.05840770e+09 1.05840770e+09 1.05840770e+09
 1.05840770e+09 1.05840770e+09 1.05840770e+09 1.05840770e+09
 1.05840770e+09 1.05840770e+09 1.05840770e+09 1.05840770e+09
