name =JUICE_ROI_CAL_J_01
flyby =  ['2032 SEP 27 04:26:36', '2032 SEP 28 04:26:36']
Observation TW =  <SpiceCell dtype = 1, length = 0, size = 4200, card = 22, is_set = 1, adjust = 0, init = 1, base = 3143837095872, data = 3143837095920>
Cov(t) =  [3030811.05927149 3020341.69203621 3009891.15243749 2999459.46328821
 2989046.6490866  2978652.7290935  2968277.72771967 2957921.66759681
 2947584.57130984 2937266.46139627 2926967.3620565  2916687.2923066
 2906426.27625234 2896184.33623562 2885961.49454794 2875757.77342974
 2865573.19676158 2855407.78329318 2845261.55680305 2835134.53932122
 2825026.7528235  2814938.21923091 2804868.96208159 2794818.99983658
 2784788.3559244  2774777.05204038 2764785.10982178 2754812.5508472
 2744859.39828916 2734925.6702971  2725011.38992608 2715116.57851333
 2705241.25733409 2695385.44760089 2685549.17209678 2675732.44863603
 2665935.2998762  2656157.74677237 2646399.81021359 2636661.51102212
 2626942.87156706 2617243.90930328 2607564.64646614 2597905.10360396
 2588265.30119828 2578645.25966137 2569045.00092327 2559464.54205453
 2549903.90484289 2540363.10940435 2530842.17578038 2521341.12393714
 2511859.97533954 2502398.74664816 2492957.45917702 2483536.13258387
 2474134.78644754 2464753.44026717 2455392.11501635 2446050.82691967
 2436729.59679101 2427428.44380343 2418147.38704662 2408886.44552614
 2399645.63969741 2390424.98532254 2381224.50268827 2372044.21045604
 2362884.12719938 2353744.2714031  2344624.66297722 2335525.31719425
 2326446.25378631 2317387.4908758  2308349.04649252 2299330.93857296
 2290333.18645386 2281355.80489062 2272398.81303278 2263462.22843572
 2254546.06855751 2245650.35075823 2236775.09377306 2227920.31181225
 2219086.02341433 2210272.24553924 2201478.9950449  2192706.28868637
 2183954.1445686  2175222.57632817 2166511.60186375 2157821.23751103
 2149151.49949883 2140502.40394826 2131873.9683049  2123266.20560277
 2114679.13307138 2106112.76639298 2097567.12113797 2089042.2127642
 2080538.05802831 2072054.66933251 2063592.06320754 2055150.25465255
 2046729.25854996 2038329.0896646  2029949.76403404 2021591.29339453
 2013253.69354679 2004936.97877719 1996641.16325041 1988366.26100854
 1980112.28597027 1971879.25329719 1963667.17392085 1955476.06275529
 1947305.93321711 1939156.79859528 1931028.67205028 1922921.56795946
 1914835.49652784 1906770.47187504 1898726.50663906 1890703.61332516
 1882701.80430501 1874721.09314099 1866761.48928109 1858823.00601973
 1850905.6551856  1843009.44846951 1835134.39742354 1827280.51476425
 1819447.80915195 1811636.29302497 1803845.97737187 1796076.87303816
 1788328.99072547 1780602.34227364 1772896.93552457 1765212.78202958
 1757549.89190619 1749908.27512378 1742287.9415027  1734688.90197512
 1727111.16353382 1719554.7368122  1712019.63102595 1704505.85523751
 1697013.41835514 1689542.33037255 1682092.59740275 1674664.22913045
 1667257.23383884 1659871.61965273 1652507.39453768 1645164.56751828
 1637843.14379732 1630543.13208028 1623264.53968735 1616007.37377529
 1608771.64133659 1601557.35039634 1594364.50521694 1587193.11349434
 1580043.1815556  1572914.71555934 1565807.72149492 1558722.20635795
 1551658.17344063 1544615.62939651 1537594.579522   1530595.02894779
 1523616.98263092 1516660.44650842 1509725.42287347 1502811.9173145
 1495919.93408423 1489049.47725729 1482200.55072941 1475373.15935008
 1468567.30438454 1461782.99032413 1455020.2203412  1448278.99742527
 1441559.32438228 1434861.20494573 1428184.63932468 1421529.63088519
 1414896.18169117 1408284.29361912 1401693.96835737 1395125.20849573
 1388578.01315958 1382052.38456227 1375548.32363201 1369065.83110514
 1362604.9075254  1356165.55431211 1349747.7694803  1343351.55406408
 1336976.90782962 1330623.83034692 1324292.32098914 1317982.37997922
 1311694.00419624 1305427.19346956 1299181.94637804 1292958.26130024
 1286756.13641381 1280575.57072067 1274416.55993937 1268279.10267028
 1262163.19628083 1256068.8379343  1249996.02458919 1243944.75400295
 1237915.02071041 1231906.82206    1225920.15418501 1219955.01301092
 1214011.39425487 1208089.29440807 1202188.70680162 1196309.62751086
 1190452.05141352 1184615.97317618 1178801.38725369 1173008.28788865
 1167236.67006879 1161486.52569142 1155757.8493208  1150050.63434554
 1144364.87393951 1138700.56106138 1133057.68939065 1127436.24957777
 1121836.23487313 1116257.63737012 1110700.44894477 1105164.66125524
 1099650.26665662 1094157.25453653 1088685.61681601 1083235.3442781
 1077806.4274861  1072398.85678326 1067012.62318621 1061647.71480595
 1056304.12222087 1050981.83489067 1045680.84205343 1040401.13272527
 1035142.69657267 1029905.52041848 1024689.59348755 1019494.90390572
 1014321.43957566 1009169.18817666 1004038.13801583  998928.27461889
  993839.58584878  988772.05848948  983725.67910075  978700.43401797
  973696.31018231  968713.29181605  963751.36541463  958810.51641495
  953890.73002909  948991.99124427  944114.28563208  939257.59610791
  934421.90779698  929607.20478686  924813.47094266  920040.6899043
  915288.84587312  910557.92045717  905847.89741183  901158.75947607
  896490.48916438  891843.06876694  887216.48111728  882610.70651888
  878025.72736089  873461.52503786  868918.08072091  864395.37535803
  859893.39042107  855412.10491536  850951.49987121  846511.55534662
  842092.25117785  837693.56697978  833315.48287251  828957.97657338
  824621.02776502  820304.61518058  816008.71733381  811733.31251955
  807478.37951992  803243.89477842  799029.83664516  794836.18254421
  790662.90968324  786509.99505418  782377.41611917  778265.14806614
  774173.16793213  770101.45185208  766049.97574836  762018.71533142
  758007.64676582  754016.74400657  750045.98280149  746095.33802091
  742164.7843271   738254.29617508  734363.84845874  730493.41392749
  726642.96706843  722812.48151643  719001.93070364  715211.28786045
  711440.52664177  707689.61862354  703958.53706598  700247.25440387
  696555.74287409  692883.97451792  689231.92178793  685599.55512349
  681986.84659528  678393.76747436  674820.28884226  671266.38159224
  667732.01643057  664217.16446064  660721.79484991  657245.87833771
  653789.38489574  650352.28431556  646934.54620998  643536.14057799
  640157.03554929  636797.20077605  633456.60517111  630135.21747612
  626833.00626325  623549.94048098  620285.98727555  617041.11526776
  613815.2923681   610608.4863259   607420.66473108  604251.79554127
  601101.84497922  597970.78069594  594858.5696619   591765.17869737
  588690.57447432  585634.72402496  582597.59271442  579579.14729131
  576579.35385428  573598.17836374  570635.58664391  567691.54487295
  564766.01763013  561858.97083504  558970.3697887   556100.17966681
  553248.36552202  550414.89275582  547599.72523941  544802.82814274
  542024.16604939  539263.70343157  536521.40465309  533797.23442843
  531091.15600606  528403.13389132  525733.13203605  523081.11429566
  520447.04443169  517830.88654792  515232.6033561   512652.15878854
  510089.51625784  507544.63909618  505017.49055803  502508.03423874
  500016.23241135  497542.04853283  495085.44557511  492646.38644666
  490224.83399542  487820.75141007  485434.10062696  483064.84473149
  480712.94635936  478378.36810081  476061.07250366  473761.0224575
  471478.17966991  469212.50696426  466963.96675024  464732.52141102
  462518.13330645  460320.76514028  458140.37850486  455976.93607656
  453830.40015489  451700.73303262  449587.89699916  447491.85469111
  445412.5677044   443349.99868883  441304.10995473  439274.86382632
  437262.22264526  435266.14910471  433286.60492807  431323.5528639
  429376.95535956  427446.77489777  425532.97399995  423635.51554435
  421754.36151038  419889.47487529  418040.81835318  416208.35471561
  414392.04679531  412591.85778795  410807.75006135  409039.6869551
  407287.63158449  405551.54714499  403831.39691605  402127.14454702
  400438.75293023  398766.185905    397109.40712547  395468.38034916
  393843.06944092  392233.43837683  390639.45151186  389061.07252634
  387498.26602002  385950.99645336  384419.22841784  382902.92663988
  381402.05623315  379916.5817069   378446.46846723  376991.68182034
  375552.18722739  374127.95030846  372718.9370796   371325.11302223
  369946.44449285  368582.89778737  367234.4393807   365901.0359307
  364582.65450022  363279.26168672  361990.8249415   360717.31169442
  359458.6895783   358214.92643035  356985.99050015  355771.84964476
  354572.47255446  353387.82793686  352217.88472642  351062.61208833
  349921.97961091  348795.95655331  347684.51298731  346587.61904016
  345505.2450893   344437.36176622  343383.9401342   342344.95099396
  341320.3659383   340310.1566529   339314.2950964   338332.75350414
  337365.50455148  336412.52071658  335473.77524898  334549.24152755
  333638.89322613  332742.7043171   331860.6492204   330992.70222278
  330138.83836122  329299.03283743  328473.26116911  327661.49919331
  326863.72320133  326079.90941375  325310.03477963  324554.07644682
  323812.01189903  323083.81895899  322369.47590922  321668.96102236
  320982.25327687  320309.33188265  319650.17640395  319004.76676233
  318373.0833434   317755.10658192  317150.8175947   316560.19776101
  315983.22883144  315419.89293061  314870.17265001  314334.05068727
  313811.51039706  313302.53542571  312807.10980616  312325.21796034
  311856.84477819  311401.97531076  310960.59523956  310532.69056505
  310118.2476877   309717.25341005  309329.69500199  308955.55994722
  308594.8363317   308247.5125855   307913.5775501   307593.02048012
  307285.83109487  306991.99937788  306711.51588486  306444.3715386
  306190.55768262  305950.06608239  305722.8889634   305509.01886334
  305308.44885999  305121.17241894  304947.18343348  304786.47622559
  304639.04557016  304504.88660005  304383.99495383  304276.36667629
  304181.99824464  304100.88656905  304033.02900337  303978.42330258
  303937.06769085  303908.96081454  303894.10175476  303892.49002239
  303904.1255165   303929.00860656  303967.14012379  304018.52132203
  304083.15389197  304161.03995783  304252.18207711  304356.58322178
  304474.24684942  304605.17679864  304749.3773557   304906.85323763
  305077.60959156  305261.65196219  305458.98641563  305669.61935483
  305893.55763887  306130.80855239  306381.37980453  306645.27948275
  306922.51622932  307213.09897682  307517.03712005  307834.34047182
  308165.01926151  308509.08407518  308866.54608505  309237.41670457
  309621.70781332  310019.4316991   310430.60105611  310855.22891134
  311293.32890722  311744.91487602  312210.00111793  312688.60232943
  313180.73360116  313686.41033042  314205.64855745  314738.46445862
  315284.87467808  315844.8962424   316418.54655798  317005.84330977
  317606.80485152  318221.44961723  318849.79650677  319491.86478661
  320147.67408704  320817.24428683  321500.59595798  322197.74969478
  322908.7265539   323633.54794115  324372.23560845  325124.81152443
  325891.29837412  326671.71880502  327466.09592204  328274.45316033
  329096.81428198  329933.2032324   330783.64469564  331648.16325657
  332526.78395136  333419.53212617  334326.43343363  335247.51367501
  336182.7994116   337132.31704227  338096.09341012  339074.15564683
  340066.53116905  341073.24750612  342094.3329683   343129.81563876
  344179.72403695  345244.08694865  346322.93342221  347416.29258172
  348524.19435275  349646.66836781  350783.7446872   351935.45361458
  353101.82569305  354282.89150369  355478.68244955  356689.22957352
  357914.56433741  359154.71842285  360409.72372662  361679.61214468
  362964.4164166   364264.16885381  365578.90217758  366908.6493052
  368253.44334598  369613.31736983  370988.30531025  372378.44060366
  373783.75708734  375204.28877049  376640.06983033  378091.13436548
  379557.51735955  381039.25322961  382536.37678464  384048.92298157
  385576.9269213   387120.42384465  388679.44886794  390254.0380184
  391844.22667494  393450.05059844  395071.5456699   396708.74788647
  398361.69308137  400030.4180219   401714.95875656  403415.35170782
  405131.63339471  406863.84042897  408612.00921911  410376.17713195
  412156.38074471  413952.65700125  415765.04291889  417593.57558457
  419438.29184308  421299.22952278  423176.42559158  425069.91737738
  426979.74225898  428905.93766235  430848.54073264  432807.58962526
  434783.12156453  436775.17412866  438783.78492478  440808.99158542
  442850.83142403  444909.34279221  446984.56303918  449076.52986353
  451185.28097159  453310.85407402  455453.28652469  457612.616745
  459788.88208314  461982.12023283  464192.36887515  466419.66567517
  468664.04790414  470925.55393172  473204.22098365  475500.08662847
  477813.1884025   480143.56380671  482491.24991174  484856.28491911
  487238.705816    489638.54993071  492055.85454071  494490.65686963
  496942.99367502  499412.90287939  501900.42112069  504405.58537754
  506928.43256004  509468.99950693  512027.32255589  514603.43924518
  517197.38575869  519809.19862168  522438.91427419  525086.56906835
  527752.19882102  530435.84058697  533137.52999704  535857.30302543
  538595.19554507  541351.24332308  544125.48155981  546917.9467332
  549728.67382807  552557.69817584  555405.05499235  558270.77937552
  561154.90582197  564057.47014593  566978.50659978  569918.04978689
  572876.13418138  575852.79412599  578848.06333033  581861.97686394
  584894.56816608  587945.87103265  591015.91911769  594104.74593134
  597212.38431962  600338.86853239  603484.23112124  606648.50500123
  609831.72293394  613033.91752556  616255.12068794  619495.3657823
  622754.68440397  626033.1085198   629330.66993248  632647.40027885
  635983.33047196  639338.49292132  642712.91820332  646106.63727508
  649519.68091989  652952.07974562  656403.86418328  659875.06390676
  663365.71014323  666875.8322088   670405.45981251  673954.62247943
  677523.34954932  681111.66957705  684719.61272108  688347.20716241
  691994.48148665  695661.46408772  699348.18316672  703054.66611284
  706780.94197265  710527.03775349  714292.98087394  718078.79855363
  721884.51781264  725710.16483271  729555.76750394  733421.35160725
  737306.94335451  741212.56875314  745138.25360522  749084.02284891
  753049.90318511  757035.91914033  761042.09568672  765068.45758694
  769115.02939335  773181.83476941  777268.89919708  781376.24591896
  785503.89863905  789651.88084751  793820.21582009  798008.92591932
  802218.03538313  806447.56614556  810697.5406186   814967.98099694
  819258.9092574   823570.34643993  827902.31551791  832254.83709661
  836627.9322767   841021.62193877  845435.92674286  849870.86638897
  854326.46256976  858802.73454578  863299.70209133  867817.38475845
  872355.80187666  876914.97179288  881494.91490683  886095.64912252
  890717.19287675  895359.56438261  900022.78162925  904706.86160121
  909411.82339697  914137.68355593  918884.45917008  923652.1671068
  928440.82401304  933250.44551023  938081.04939087  942932.65082513
  947805.26555621  952698.9091023   957613.59675662  962549.34276498
  967506.16361203  972484.07309728  977483.08561431  982503.21533199
  987544.47619448  992606.88107795  997690.44516102 1002795.18087459
 1007921.1012654  1013068.21915614 1018236.54714569 1023426.09674466
 1028636.88183052 1033868.91347072 1039122.20337075 1044396.76301335
 1049692.6036587  1055009.73545885 1060348.17099785 1065707.91998758
 1071088.99280076 1076491.39958901 1081915.15028316 1087360.2536864
 1092826.72109962 1098314.56088967 1103823.78210752 1109354.39358509
 1114906.40393564 1120479.82062568 1126074.65368567 1131690.91015035
 1137328.59776229 1142987.7240475  1148668.29631578 1154370.32071137
 1160093.80600927 1165838.75792725 1171605.18291507 1177393.08720865
 1183202.47683061 1189033.35759076 1194885.73411172 1200759.61372557
 1206655.00064059 1212571.89982261 1218510.31602502 1224470.25379155
 1230451.71646049 1236454.71014698 1242479.23777637 1248525.30305941
 1254592.90950004 1260682.06039603 1266792.75782178 1272925.00669656
 1279078.80868907 1285254.16627851 1291451.08174103 1297669.55715038
 1303909.59333918 1310171.19405333 1316454.35972748 1322759.09163223
 1329085.39083909 1335433.25822111 1341802.69339279 1348193.69895046
 1354606.27411881 1361040.41898408 1367496.1334376  1373973.41717645
 1380472.26862185 1386992.68924569 1393534.67708792 1400098.23107592
 1406683.34994647 1413290.03224652 1419918.27523002 1426568.07927058
 1433239.44124979 1439932.35896265 1446646.83001812 1453382.85183978
 1460140.42054135 1466919.53542526 1473720.19224202 1480542.3876817
 1487386.11825291 1494251.38028366 1501138.16877521 1508046.48198673
 1514976.31456575 1521927.66212555 1528900.52010278 1535894.8837594
 1542910.74701961 1549948.10712904 1557006.95766099 1564087.29318081
 1571189.10808195 1578312.39658677 1585457.15155767 1592623.36925327
 1599811.0422015  1607020.16394867 1614250.72787418 1621502.72719128
 1628776.15373682 1636071.00281303 1643387.26593224 1650724.9356516
 1658084.0043663  1665464.46431044 1672866.30632539 1680289.52478698
 1687734.11022214 1695200.05422903 1702687.3482489  1710195.98356699
 1717725.95005959 1725277.24120642 1732849.8465795  1740443.75684846
 1748058.96253115 1755695.45399449 1763353.22018031 1771032.25370276
 1778732.54320962 1786454.07847268 1794196.84911703 1801960.84462202
 1809746.05302582 1817552.46610759 1825380.07162173 1833228.85847293
 1841098.81542435 1848989.93109851 1856902.19266079 1864835.59108605
 1872790.11326614 1880765.74726947 1888762.48102806 1896780.30233838
 1904819.19752387 1912879.15678574 1920960.16618412 1929062.21298189]
t =  [1.03318686e+09 1.03318687e+09 1.03318687e+09 1.03318687e+09
 1.03318687e+09 1.03318687e+09 1.03318687e+09 1.03318687e+09
 1.03318687e+09 1.03318687e+09 1.03318687e+09 1.03318687e+09
 1.03318687e+09 1.03318687e+09 1.03318687e+09 1.03318688e+09
 1.03318688e+09 1.03318688e+09 1.03318688e+09 1.03318688e+09
 1.03318688e+09 1.03318688e+09 1.03318688e+09 1.03318688e+09
 1.03318688e+09 1.03318688e+09 1.03318688e+09 1.03318688e+09
 1.03318688e+09 1.03318689e+09 1.03318689e+09 1.03318689e+09
 1.03318689e+09 1.03318689e+09 1.03318689e+09 1.03318689e+09
 1.03318689e+09 1.03318689e+09 1.03318689e+09 1.03318689e+09
 1.03318689e+09 1.03318689e+09 1.03318689e+09 1.03318690e+09
 1.03318690e+09 1.03318690e+09 1.03318690e+09 1.03318690e+09
 1.03318690e+09 1.03318690e+09 1.03318690e+09 1.03318690e+09
 1.03318690e+09 1.03318690e+09 1.03318690e+09 1.03318690e+09
 1.03318690e+09 1.03318691e+09 1.03318691e+09 1.03318691e+09
 1.03318691e+09 1.03318691e+09 1.03318691e+09 1.03318691e+09
 1.03318691e+09 1.03318691e+09 1.03318691e+09 1.03318691e+09
 1.03318691e+09 1.03318691e+09 1.03318691e+09 1.03318692e+09
 1.03318692e+09 1.03318692e+09 1.03318692e+09 1.03318692e+09
 1.03318692e+09 1.03318692e+09 1.03318692e+09 1.03318692e+09
 1.03318692e+09 1.03318692e+09 1.03318692e+09 1.03318692e+09
 1.03318692e+09 1.03318693e+09 1.03318693e+09 1.03318693e+09
 1.03318693e+09 1.03318693e+09 1.03318693e+09 1.03318693e+09
 1.03318693e+09 1.03318693e+09 1.03318693e+09 1.03318693e+09
 1.03318693e+09 1.03318693e+09 1.03318693e+09 1.03318694e+09
 1.03318694e+09 1.03318694e+09 1.03318694e+09 1.03318694e+09
 1.03318694e+09 1.03318694e+09 1.03318694e+09 1.03318694e+09
 1.03318694e+09 1.03318694e+09 1.03318694e+09 1.03318694e+09
 1.03318694e+09 1.03318695e+09 1.03318695e+09 1.03318695e+09
 1.03318695e+09 1.03318695e+09 1.03318695e+09 1.03318695e+09
 1.03318695e+09 1.03318695e+09 1.03318695e+09 1.03318695e+09
 1.03318695e+09 1.03318695e+09 1.03318695e+09 1.03318696e+09
 1.03318696e+09 1.03318696e+09 1.03318696e+09 1.03318696e+09
 1.03318696e+09 1.03318696e+09 1.03318696e+09 1.03318696e+09
 1.03318696e+09 1.03318696e+09 1.03318696e+09 1.03318696e+09
 1.03318696e+09 1.03318697e+09 1.03318697e+09 1.03318697e+09
 1.03318697e+09 1.03318697e+09 1.03318697e+09 1.03318697e+09
 1.03318697e+09 1.03318697e+09 1.03318697e+09 1.03318697e+09
 1.03318697e+09 1.03318697e+09 1.03318697e+09 1.03318698e+09
 1.03318698e+09 1.03318698e+09 1.03318698e+09 1.03318698e+09
 1.03318698e+09 1.03318698e+09 1.03318698e+09 1.03318698e+09
