name =JUICE_ROI_CAL_J_01
flyby =  ['2033 JAN 13 13:32:12', '2033 JAN 14 13:32:12']
Observation TW =  <SpiceCell dtype = 1, length = 0, size = 2200, card = 2, is_set = 1, adjust = 0, init = 1, base = 2384893657600, data = 2384893657648>
Cov(t) =  [3030987.84329466 3020009.26497529 3009052.77283176 2998118.38972182
 2987206.14348822 2976316.06188519 2965448.16756635 2954602.48813701
 2943779.05111133 2932977.87893098 2922198.99895591 2911442.43845222
 2900708.21964173 2889996.369631   2879306.91378705 2868639.87903268
 2857995.28728412 2847373.1652974  2836773.53972828 2826196.43225435
 2815641.86935915 2805109.87742311 2794600.47787698 2784113.69692173
 2773649.56065119 2763208.09024088 2752789.31160422 2742393.25054591
 2732019.92797811 2721669.36951661 2711341.60066559 2701036.64206535
 2690754.51902546 2680495.25674095 2670258.87557173 2660045.40051245
 2649854.85644033 2639687.26342622 2629542.64614116 2619421.02913569
 2609322.43218297 2599246.87962152 2589194.39412154 2579164.9997843
 2569158.71597225 2559175.56656673 2549215.5753216  2539278.76128095
 2529365.1479727  2519474.75879427 2509607.6124624  2499763.73214254
 2489943.14086654 2480145.85701478 2470371.90338106 2460621.3026225
 2450894.07277402 2441190.23624857 2431509.8153193  2421852.82766647
 2412219.29531294 2402609.24013858 2393022.67945979 2383459.63489996
 2373920.12793637 2364404.17551227 2354911.7988422  2345443.01899144
 2335997.85252076 2326576.32022641 2317178.44130811 2307804.23626711
 2298453.72113957 2289126.91614931 2279823.84136354 2270544.51241515
 2261288.94908789 2252057.17100518 2242849.19338474 2233665.03555988
 2224504.71670073 2215368.25160155 2206255.65913601 2197166.9580114
 2188102.16258897 2179061.29127316 2170044.36229877 2161051.38958452
 2152082.39105599 2143137.38446587 2134216.3832808  2125319.40493783
 2116446.46669795 2107597.58156611 2098772.76648124 2089972.03820293
 2081195.40926492 2072442.89609831 2063714.51361067 2055010.27787813
 2046330.20079116 2037674.29808891 2029042.58532367 2020435.07389239
 2011851.77900397 2003292.71567725 1994757.89480611 1986247.3310596
 1977761.0389136  1969299.02874932 1960861.3146865  1952447.9106484
 1944058.82649417 1935694.07578466 1927353.67188107 1919037.62411101
 1910745.94546697 1902478.64873861 1894235.74271265 1886017.23980378
 1877823.15222073 1869653.48819997 1861508.25956903 1853387.4779464
 1845291.151009   1837219.28998795 1829171.9046649  1821149.00585436
 1813150.6004729  1805176.69894215 1797227.31146754 1789302.444385
 1781402.10749845 1773526.31039261 1765675.05881364 1757848.36193878
 1750046.22872303 1742268.66431391 1734515.67725306 1726787.27585691
 1719083.46466557 1711404.25157626 1703749.64425815 1696119.64663522
 1688514.26595165 1680933.50922071 1673377.37974173 1665845.88409735
 1658339.02863645 1650856.81602533 1643399.25217669 1635966.34276675
 1628558.08982051 1621174.49857253 1613815.57288788 1606481.31753319
 1599171.73366588 1591886.8256039  1584626.59742247 1577391.04961917
 1570180.18581536 1562994.00938713 1555832.52016454 1548695.7210648
 1541583.61475734 1534496.20039733 1527433.48019042 1520395.45609208
 1513382.12657535 1506393.49312722 1499429.55698216 1492490.31592408
 1485575.7707144  1478685.92185976 1471820.76644825 1464980.30450905
 1458164.53581443 1451373.4567502  1444607.06660984 1437865.36442734
 1431148.34587968 1424456.00951247 1417788.35258636 1411145.37313577
 1404527.06588377 1397933.42837396 1391364.45788651 1384820.14842265
 1378300.4967682  1371805.49944388 1365335.14972393 1358889.44363141
 1352468.37692271 1346071.94214031 1339700.13453986 1333352.9491089
 1327030.3776537  1320732.41465824 1314459.05433704 1308210.28775613
 1301986.1086239  1295786.51037809 1289611.4833408  1283461.02044135
 1277335.11433729 1271233.75460355 1265156.93338725 1259104.64256282
 1253076.87095515 1247073.60992646 1241094.84964755 1235140.5809448
 1229210.79163934 1223305.47204351 1217424.61219534 1211568.19916094
 1205736.22246323 1199928.67135042 1194145.53213225 1188386.79354104
 1182652.44403421 1176942.46916416 1171256.85687202 1165595.59482383
 1159958.66781435 1154346.06299328 1148757.7672353  1143193.76457763
 1137654.04137889 1132138.58372325 1126647.37489456 1121180.40046245
 1115737.64572112 1110319.09319516 1104924.72766421 1099554.5336342
 1094208.49287558 1088886.58938107 1083588.80605725 1078315.12636251
 1073065.53106547 1067840.00311378 1062638.52518355 1057461.07729563
 1052307.64161771 1047178.20004728 1042072.73186112 1036991.218451
 1031933.64094003 1026899.97786532 1021890.20984741 1016904.31723992
 1011942.27784532 1007004.07151828 1002089.6778485   997199.07390954
  992332.23879621  987489.15134058  982669.78789367  977874.1267972
  973102.14613254  968353.82153532  963629.1306016   958928.05066974
  954250.55666783  949596.62545441  944966.23292268  940359.35543358
  935775.96698525  931216.04346694  926679.56051742  922166.49144848
  917676.81143385  913210.49540039  908767.51598383  904347.84765317
  899951.46463427  895578.33889801  891228.44422014  886901.75413733
  882598.23996754  878317.8748048   874060.63150632  869826.48074961
  865615.39496179  861427.34633983  857262.30493503  853120.24252082
  849001.13064536  844904.93874791  840831.637963    836781.1992051
  832753.59131665  828748.78480898  824766.74936787  820807.45508779
  816870.87004062  812956.9639326   809065.70626301  805197.06454583
  801351.00790394  797527.50525943  793726.52358649  789948.0314432
  786191.99719326  782458.38729006  778747.16974629  775058.31238698
  771391.78116459  767747.54356672  764125.5669003   760525.81663763
  756948.25976237  753392.86308487  749859.59161886  746348.41186617
  742859.29016289  739392.19108672  735947.08068062  732523.92482965
  729122.68769893  725743.33489632  722385.83136514  719050.14242687
  715736.23173434  712444.06435397  709173.60521392  705924.81761243
  702697.66623993  699492.11565745  696308.12883496  693145.67011367
  690004.70371451  686885.19230626  683787.09990826  680710.39042928
  677655.02626515  674620.97114228  671608.18868606  668616.6410482
  665646.29169137  662697.10398714  659769.03987286  656862.06257754
  653976.13524943  651111.21964198  648267.27878154  645444.27519146
  642642.1717709   639860.93007701  637100.51291538  634360.88303583
  631642.00188595  628943.83214386  626266.33644307  623609.47615466
  620973.21386279  618357.51211835  615762.3322497   613187.63678123
  610633.38821561  608099.547873    605586.07825281  603092.94184463
  600620.09999548  598167.51521534  595735.15001637  593322.96580824
  590930.92514759  588558.99060547  586207.12369049  583875.28704264
  581563.44332868  579271.55419308  576999.58239636  574747.49039194
  572515.24103135  570302.79619849  568110.11887342  565937.17209256
  563783.91796365  561650.31967601  559536.34048818  557441.9427701
  555367.08995896  553311.74557417  551275.87228658  549259.43382016
  547262.39399425  545284.71581958  543326.36334615  541387.30073251
  539467.49136845  537566.89966947  535685.4901728   533823.2266867
  531980.07403172  530155.9971634   528350.960348    526564.92885078
  524797.86808531  523049.74281539  521320.51879072  519610.16166087
  517918.63751187  516245.91183242  514591.95107985  512956.72189074
  511340.19034352  509742.32347236  508163.08850389  506602.45214552
  505060.38204762  503536.84606613  502031.81157646  500545.24688427
  499077.12051375  497627.40054632  496196.05598124  494783.05604957
  493388.36957852  492011.96630011  490653.81619053  489313.88886002
  487992.15481087  486688.58480206  485403.14926426  484135.81950732
  482886.56711008  481655.36336037  480442.18041224  479246.99051832
  478069.76640718  476910.48056544  475769.10632848  474645.61732853
  473539.98699226  472452.18958182  471382.19966762  470329.99165052
  469295.54075334  468278.82251829  467279.8123536   466298.48647571
  465334.82143122  464388.79366786  463460.38042756  462549.55929285
  461656.30778198  460780.60419314  459922.4271751   459081.75534653
  458258.56809137  457452.84515378  456664.56628143  455893.7119723
  455140.26309374  454404.20054968  453685.50597906  452984.16129229
  452300.14889519  451633.45127339  450984.05162652  450351.93354302
  449737.08072295  449139.477564    448559.10886028  447995.95954862
  447450.0152468   446921.26197588  446409.68593037  445915.27396836
  445438.01335774  444977.89156973  444534.89672147  444109.01734569
  443700.24220784  443308.56070097  442933.96263903  442576.43809737
  442235.97776014  441912.57273705  441606.21442728  441316.89481943
  441044.6063317   440789.3416992   440551.09422649  440329.85761842
  440125.62605447  439938.39406657  439768.15672856  439614.90955087
  439478.64842234  439359.36975227  439257.07038853  439171.74758261
  439103.3990845   439052.02308403  439017.61819924  439000.18352401
  438999.71858572  439016.22332824  439049.69819297  439100.14407032
  439167.56232537  439251.95475112  439353.32357977  439471.67154098
  439607.00176785  439759.31783152  439928.6238227   440114.92421045
  440318.22390001  440538.52833771  440775.84332241  441030.17512714
  441301.53042508  441589.91645815  441895.34078542  442217.81139536
  442557.33686521  442913.92606202  443287.58827828  443678.33341472
  444086.17163385  444511.11351905  444953.17028081  445412.35336278
  445888.67462424  446382.14656993  446892.78190847  447420.59375829
  447965.59590111  448527.80229256  449107.22729173  449703.88593831
  450317.79341531  450948.96530231  451597.41787622  452263.1675262
  452946.23103044  453646.62588081  454364.36964969  455099.48040492
  455851.97648617  456621.8769679   457409.20096183  458213.96794927
  459036.19816166  459875.91183465  460733.1295643   461607.87271182
  462500.16260897  463410.02093837  464337.4701624   465282.53267985
  466245.23123038  467225.58934768  468223.63046724  469239.37835504
  470272.85758503  471324.09259789  472393.108154    473479.92983545
  474584.58305552  475707.09353603  476847.48783401  478005.79230171
  479182.03358844  480376.23919205  481588.43636916  482818.65285241
  484066.91647341  485333.25592976  486617.69962874  487920.27624683
  489241.01533948  490579.94613448  491937.09811655  493312.50166214
  494706.18678252  496118.18373326  497548.52367449  498997.23736316
  500464.35578927  501949.91086207  503453.93404584  504976.45702335
  506517.51240729  508077.13233043  509655.34913124  511252.19609082
  512867.7059717   514501.91172896  516154.84727317  517826.54595734
  519517.04131392  521226.36784368  522954.55945073  524701.65047566
  526467.67515927  528252.668728    530056.66575921  531879.70097879
  533721.81011137  535583.028193    537463.39039499  539362.93290067
  541281.69116516  543219.70076559  545176.99830456  547153.61961668
  549149.60064539  551164.97837323  553199.78897491  555254.06872079
  557327.8549342   559421.18409072  561534.09274846  563666.61853262
  565818.79818063  567990.6684995   570182.26737763  572393.63177558
  574624.79871065  576875.80629612  579146.69168149  581437.49241659
  583748.24573974  586078.99000494  588429.76254462  590800.60071824
  593191.54301632  595602.62686769  598033.88971579  600485.37015075
  602957.10566092  605449.13373701  607961.4930324   610494.22105864
  613047.35531759  615620.93449012  618214.99607521  620829.57755038
  623464.71758881  626120.45364184  628796.82312776  631493.86467757
  634211.61566056  636950.11340155  639709.39645557  642489.5020761
  645290.46746103  648112.33105631  650955.12996662  653818.90167236
  656703.68315135  659609.51265389  662536.42703619  665484.46307386
  668453.65883381  671444.05094936  674455.67596298  677488.57172764
  680542.77462337  683618.32092932  686715.24825481  689833.59269696
  692973.39024129  696134.67822361  699317.49242929  702521.86852361
  705747.84354273  708995.45293246  712264.73200941  715555.71748198
  718868.44442938  722202.94779275  725559.26392641  728937.42751679
  732337.47362847  735759.43666178  739203.35245949  742669.2551451
  746157.1786844   749667.15850803  753199.22828898  756753.42153465
  760329.77324012  763928.31660462  767549.08465419  771192.11192582
  774857.4311226   778545.0747671   782255.0769166   785987.46975653
  789742.28528481  793519.55705822  797319.31672394  801141.59573492
  804986.42712754  808853.84199101  812743.87121384  816656.54729305
  820591.90074098  824549.9618632   828530.76259915  832534.33286637
  836560.70299103  840609.902474    844681.96248462  848776.91212089
  852894.78026078  857035.59747713  861199.39223448  865386.19277226
  869596.0290515   873828.9288882   878084.91986835  882364.03132676
  886666.2904176   890991.72406195  895340.36095476  899712.2275728
  904107.35015377  908525.75673978  912967.47311859  917432.52483488
  921920.93926606  926432.74149911  930967.95637415  935526.61059273
  940108.72853007  944714.33431095  949343.45395073  953996.11110261
  958672.32988739  963372.13346076  968095.54690833  972842.59290607
  977613.29387229  982407.67418519  987225.75577785  992067.56032305
  996933.11148369 1001822.4304423  1006735.53811863 1011672.45745318
 1016633.20887092 1021617.81253186 1026626.29064765 1031658.66287943
 1036714.94862142 1041795.16935071 1046899.34395901 1052027.49106938
 1057179.63141931 1062355.78312615 1067555.96403712 1072780.19414567
 1078028.49079059 1083300.87103917 1088597.35413712 1093917.95664097
 1099262.69565892 1104631.58721318 1110024.64954765 1115441.89817139
 1120883.34831969 1126349.01748234 1131838.92038008 1137353.07145933
 1142891.48745355 1148454.1822903  1154041.16962508 1159652.46543493
 1165288.08285996 1170948.03476533 1176632.33637048 1182341.00002416
 1188074.03780009 1193831.46416002 1199613.29066134 1205419.52858648
 1211250.1916399  1217105.29058813 1222984.83592302 1228888.84059261
 1234817.31457359 1240770.26756838 1246747.71177    1252749.65636676
 1258776.11120241 1264827.08492943 1270902.58873706 1277002.63076558
 1283127.21888259 1289276.36352724 1295450.07205671 1301648.35155639
 1307871.21171825 1314118.65911929 1320390.70006579 1326687.34350584
 1333008.59523961 1339354.46079783 1345724.94838832 1352120.06303824
 1358539.80950665 1364984.19526517 1371453.22457211 1377946.9014191
 1384465.23254603 1391008.22144684 1397575.87135043 1404168.18826968
 1410785.17493908 1417426.83382975 1424093.1702327  1430784.18612818
 1437499.88427003 1444240.26612733 1451005.33603713 1457795.09498267
 1464609.54368819 1471448.68578162 1478312.52150497 1485201.05084353
 1492114.27672296 1499052.19865094 1506014.81588033 1513002.13064075
 1520014.14171184 1527050.84762066 1534112.24990752 1541198.34663083
 1548309.13559874 1555444.61766921 1562604.79018648 1569789.65024694
 1576999.19803339 1584233.43018321 1591492.34308838 1598775.936264
 1606084.20564807 1613417.14693576 1620774.75898211 1628157.03703345
 1635563.97723749 1642995.57437245 1650451.82642551 1657932.72773316
 1665438.27239533 1672968.45775767 1680523.27748381 1688102.72500353
 1695706.79702926 1703335.48656004 1710988.78636392 1718666.6925285
 1726369.19739673 1734096.29308344 1741847.97505994 1749624.23502173
 1757425.06443907 1765250.45817568 1773100.40728834 1780974.90261158
 1788873.93841028 1796797.50511141 1804745.59292262 1812718.19551895
 1820715.30270646 1828736.90407501 1836782.99271873 1844853.55783192
 1852948.58964309 1861068.07693719 1869212.01205631 1877380.38339354
 1885573.17913265 1893790.39104777 1902032.00694126 1910298.01440943
 1918588.40467585 1926903.16496163 1935242.28228498 1943605.74732824
 1951993.5467407  1960405.66697188 1968842.09817231 1977302.8264289
 1985787.83763199 1994297.12140975 2002830.66329622 2011388.44863212
 2019970.46653272 2028576.7019888  2037207.139801   2045861.76858124
 2054540.57278665 2063243.53668738 2071970.6484016  2080721.89186235
 2089497.25217102 2098296.7129055  2107120.2615405  2115967.88132532
 2124839.55532992 2133735.27055759 2142655.00975613 2151598.75549723
 2160566.49432236 2169558.20848747 2178573.88007563 2187613.49517612
 2196677.0355627  2205764.4828395  2214875.82265318 2224011.03630496
 2233170.10492966 2242353.01374091 2251559.74357704 2260790.27511318
 2270044.59313948 2279322.67804098 2288624.51004274 2297950.07352096
 2307299.34841695 2316672.31451531 2326068.95578772 2335489.25174136
 2344933.18318471 2354400.72932989 2363891.87362395 2373406.59501043
 2382944.87229095 2392506.68853292 2402092.02226737 2411700.85187913
 2421333.16005936 2430988.9249362  2440668.12449475 2450370.74106202
 2460096.75237261 2469846.1360212  2479618.87397987 2489414.94359896
 2499234.32209202 2509076.99108536 2518942.9275543  2528832.10834045
 2538744.51473347 2548680.12334281 2558638.91064733 2568620.85760904
 2578625.94048068 2588654.13538739 2598705.42297256 2608779.77914121
 2618877.18122918 2628997.60490406 2639141.03039818 2649307.43316694
 2659496.78854517 2669709.07646722 2679944.2720616  2690202.35033925
 2700483.29094525 2710787.06869004 2721113.65826942 2731463.03904787
 2741835.18552645 2752230.07209453 2762647.67784453 2773087.97697679
 2783550.94358286 2794036.55649157 2804544.7896111  2815075.61674367
 2825629.01646293 2836204.96239335 2846803.42805628 2857424.39177849
 2868067.82690909 2878733.7066969  2889422.00923001 2900132.70759049
 2910865.77641597 2921621.18860468 2932398.9219391  2943198.94915792
 2954021.24290596 2964865.78074579 2975732.53516866 2986621.47857577
 2997532.58831782 3008465.83664525 3019421.19572001 3030398.6426884 ]
t =  [1.04255081e+09 1.04255082e+09 1.04255082e+09 1.04255082e+09
 1.04255082e+09 1.04255082e+09 1.04255082e+09 1.04255082e+09
 1.04255082e+09 1.04255082e+09 1.04255082e+09 1.04255082e+09
 1.04255082e+09 1.04255082e+09 1.04255083e+09 1.04255083e+09
 1.04255083e+09 1.04255083e+09 1.04255083e+09 1.04255083e+09
 1.04255083e+09 1.04255083e+09 1.04255083e+09 1.04255083e+09
 1.04255083e+09 1.04255083e+09 1.04255083e+09 1.04255084e+09
 1.04255084e+09 1.04255084e+09 1.04255084e+09 1.04255084e+09
 1.04255084e+09 1.04255084e+09 1.04255084e+09 1.04255084e+09
 1.04255084e+09 1.04255084e+09 1.04255084e+09 1.04255084e+09
 1.04255085e+09 1.04255085e+09 1.04255085e+09 1.04255085e+09
 1.04255085e+09 1.04255085e+09 1.04255085e+09 1.04255085e+09
 1.04255085e+09 1.04255085e+09 1.04255085e+09 1.04255085e+09
 1.04255085e+09 1.04255086e+09 1.04255086e+09 1.04255086e+09
 1.04255086e+09 1.04255086e+09 1.04255086e+09 1.04255086e+09
 1.04255086e+09 1.04255086e+09 1.04255086e+09 1.04255086e+09
 1.04255086e+09 1.04255086e+09 1.04255087e+09 1.04255087e+09
 1.04255087e+09 1.04255087e+09 1.04255087e+09 1.04255087e+09
 1.04255087e+09 1.04255087e+09 1.04255087e+09 1.04255087e+09
 1.04255087e+09 1.04255087e+09 1.04255087e+09 1.04255088e+09
 1.04255088e+09 1.04255088e+09 1.04255088e+09 1.04255088e+09
 1.04255088e+09 1.04255088e+09 1.04255088e+09 1.04255088e+09
 1.04255088e+09 1.04255088e+09 1.04255088e+09 1.04255089e+09
 1.04255089e+09 1.04255089e+09 1.04255089e+09 1.04255089e+09
 1.04255089e+09 1.04255089e+09 1.04255089e+09 1.04255089e+09
 1.04255089e+09 1.04255089e+09 1.04255089e+09 1.04255089e+09
 1.04255090e+09 1.04255090e+09 1.04255090e+09 1.04255090e+09
 1.04255090e+09 1.04255090e+09 1.04255090e+09 1.04255090e+09
 1.04255090e+09 1.04255090e+09 1.04255090e+09 1.04255090e+09
 1.04255090e+09 1.04255091e+09 1.04255091e+09 1.04255091e+09
 1.04255091e+09 1.04255091e+09 1.04255091e+09 1.04255091e+09
 1.04255091e+09 1.04255091e+09 1.04255091e+09 1.04255091e+09
 1.04255091e+09 1.04255091e+09 1.04255092e+09 1.04255092e+09
 1.04255092e+09 1.04255092e+09 1.04255092e+09 1.04255092e+09
 1.04255092e+09 1.04255092e+09 1.04255092e+09 1.04255092e+09
 1.04255092e+09 1.04255092e+09 1.04255092e+09 1.04255093e+09
 1.04255093e+09 1.04255093e+09 1.04255093e+09 1.04255093e+09
 1.04255093e+09 1.04255093e+09 1.04255093e+09 1.04255093e+09
 1.04255093e+09 1.04255093e+09 1.04255093e+09 1.04255093e+09
 1.04255094e+09 1.04255094e+09 1.04255094e+09 1.04255094e+09
 1.04255094e+09 1.04255094e+09 1.04255094e+09 1.04255094e+09
