name =JUICE_ROI_CAL_J_01
flyby =  ['2032 DEC 27 21:06:34', '2032 DEC 28 21:06:34']
Observation TW =  <SpiceCell dtype = 1, length = 0, size = 2800, card = 8, is_set = 1, adjust = 0, init = 1, base = 2433508278272, data = 2433508278320>
Cov(t) =  [3030690.56189148 3018983.71090595 3007300.41204069 2995640.69892305
 2984004.59989986 2972392.14846152 2960803.37628736 2949238.31498387
 2937696.99608365 2926179.45275893 2914685.71295869 2903215.80970562
 2891769.77422614 2880347.63766748 2868949.43109652 2857575.18719197
 2846224.93346684 2834898.70243733 2823596.52483812 2812318.43131809
 2801064.4524392  2789834.62034696 2778628.96207917 2767447.50960542
 2756290.29312863 2745157.34275907 2734048.68851325 2722964.36196273
 2711904.38962944 2700868.80289522 2689857.63138988 2678870.90464361
 2667908.65208582 2656970.904672   2646057.68836651 2635169.03392095
 2624304.97034955 2613465.52655973 2602650.7313509  2591860.6150193
 2581095.20292871 2570354.52515687 2559638.61005875 2548947.48587515
 2538281.18073089 2527639.72421824 2517023.14105631 2506431.46060423
 2495864.71051297 2485322.91831174 2474806.11140668 2464314.31864118
 2453847.56404446 2443405.87621105 2432989.28204195 2422597.80830857
 2412231.48165149 2401890.33011827 2391574.37700172 2381283.65008485
 2371018.17547156 2360777.9791283  2350563.08688266 2340373.52593861
 2330209.31880518 2320070.49240571 2309957.071999   2299869.08269822
 2289806.54946958 2279769.49862478 2269757.95184055 2259771.93513158
 2249811.47286244 2239876.58924388 2229967.30833135 2220083.65549462
 2210225.65152872 2200393.32148973 2190586.68879809 2180805.77671195
 2171050.6083258  2161321.20801693 2151617.59564846 2141939.79526704
 2132287.82929817 2122661.71999654 2113061.48944458 2103487.16097585
 2093938.75347046 2084416.28991413 2074919.79168588 2065449.27998527
 2056004.77583092 2046586.30146067 2037193.87471988 2027827.51748112
 2018487.25002476 2009173.09244293 1999885.06463646 1990623.18769363
 1981387.4783727  1972177.95738038 1962994.64384568 1953837.55670056
 1944706.7146785  1935602.13766776 1926523.84128681 1917471.8450234
 1908446.1668021  1899446.82434157 1890473.83515304 1881527.21787007
 1872606.98691816 1863713.16051251 1854845.75531977 1846004.7877917
 1837190.27547527 1828402.23176095 1819640.67376242 1810905.617057
 1802197.07699969 1793515.06872162 1784859.60841644 1776230.70818347
 1767628.38376517 1759052.64938237 1750503.51902458 1741981.00644854
 1733485.12644072 1725015.88975566 1716573.31071077 1708157.40211663
 1699768.17654361 1691405.64632032 1683069.82477234 1674760.721256
 1666478.34860998 1658222.71818115 1649993.84106722 1641791.72811531
 1633616.39113673 1625467.83803641 1617346.08012112 1609251.12722082
 1601182.98890761 1593141.67449417 1585127.19422464 1577139.55449994
 1569178.7650422  1561244.83411207 1553337.76970355 1545457.57954263
 1537604.27225072 1529777.85267011 1521978.32888673 1514205.70754051
 1506459.99499632 1498741.1973425  1491049.32153374 1483384.37080875
 1475746.35156624 1468135.26877463 1460551.12711889 1452993.93099916
 1445463.68564957 1437960.39265225 1430484.05666888 1423034.68094677
 1415612.26844165 1408216.82181635 1400848.3445355  1393506.83647609
 1386192.3005144  1378904.73812853 1371644.15049714 1364410.53849821
 1357203.90377965 1350024.24446639 1342871.56160264 1335745.85485099
 1328647.12356708 1321575.36679835 1314530.58433069 1307512.77249203
 1300521.93044993 1293558.05600723 1286621.14665268 1279711.19955978
 1272828.21260935 1265972.18028959 1259143.09984923 1252340.96718955
 1245565.77789102 1238817.52721227 1232096.21108856 1225401.82212838
 1218734.35562202 1212093.80553018 1205480.16548642 1198893.42879584
 1192333.58941042 1185800.63802171 1179294.56792503 1172815.37110438
 1166363.0392111  1159937.56356296 1153538.93609484 1147167.14554778
 1140822.18318929 1134504.03899442 1128212.70260051 1121948.16330642
 1115710.41099929 1109499.43243965 1103315.21683794 1097157.75213166
 1091027.0259162  1084923.02544422 1078845.73852864 1072795.14992344
 1066771.24675691 1060774.01490451 1054803.439896   1048859.50779864
 1042942.2016776  1037051.50691008 1031187.4076378  1025349.88765432
 1019538.93040463 1013754.51984473 1007996.63699733 1002265.26512336
  996560.38626981  990881.98213335  985230.0340601   979604.52388172
  974005.43056587  968432.7352459   962886.41786352  957366.45800891
  951872.83492064  946405.52829836  940964.51504772  935549.77416877
  930161.28349307  924799.02050204  919462.96232653  914153.08653263
  908869.36796305  903611.78348489  898380.30882085  893174.9193427
  887995.59007147  882842.29644377  877715.01124421  872613.7092134
  867538.36397266  862488.9487943   857465.43660213  852467.80071471
  847496.01187075  842550.04269813  837629.86473168  832735.44916041
  827866.76682824  823023.78895446  818206.4842515   813414.82325584
  808648.77543832  803908.30992846  799193.39551546  794504.00134595
  789840.09413361  785201.64235295  780588.61344135  776000.97450088
  771438.6922994   766901.73394593  762390.0641913   757903.64948592
  753442.45527296  749006.44666765  744595.58845868  740209.84576132
  735849.18140834  731513.55987296  727202.94465238  722917.2989248
  718656.58555112  714420.76770597  710209.80635828  706023.6640601
  701862.30241485  697725.68272111  693613.76597315  689526.51346813
  685463.88437542  681425.83939314  677412.33831034  673423.34062002
  669458.80552137  665518.6925074   661602.95902223  657711.56398638
  653844.46544696  650001.62116906  646182.98863828  642388.52562698
  638618.18793862  634871.93280319  631149.7166145   627451.49550015
  623777.22532445  620126.86223339  616500.36048527  612897.67571753
  609318.76277029  605763.5762352   602232.07045857  598724.20006555
  595239.91787593  591779.17804384  588341.93396667  584928.13881292
  581537.74552569  578170.70732621  574826.97571384  571506.50348024
  568209.24270252  564935.14525049  561684.16279042  558456.24726821
  555251.34899262  552069.41952532  548910.40975743  545774.27039623
  542660.95243165  539570.40528792  536502.57961372  533457.42542926
  530434.89258559  527434.93077492  524457.48997759  521502.51869511
  518569.96661692  515659.78284685  512771.91635321  509906.31597349
  507062.93084121  504241.70869921  501442.59844685  498665.54844675
  495910.50695519  493177.42212715  490466.24242382  487776.91500496
  485109.38815818  482463.60968489  479839.52731126  477237.08869364
  474656.24180687  472096.93341468  469559.1113827   467042.7231425
  464547.71608336  462074.03755797  459621.63525198  457190.45573119
  454780.44663997  452391.55524223  450023.7287943   447676.91455092
  445351.06011624  443046.11206662  440762.01803622  438498.72533371
  436256.18129651  434034.33329706  431833.12907551  429652.51543836
  427492.44023109  425352.85102902  423233.69547403  421134.92128099
  419056.47655243  416998.30854921  414960.36555535  412942.59564273
  410944.94698887  408967.36788361  407009.80702598  405072.21236704
  403154.53286684  401256.71733134  399378.71471243  397520.47411467
  395681.94507466  393863.07647489  392063.81819448  390284.12001721
  388523.93191384  386783.20404907  385061.88704355  383359.93095762
  381677.28683738  380013.9056927   378369.73876219  376744.73752017
  375138.85392156  373552.0394545   371984.24658321  370435.4277949
  368905.53584756  367394.52377691  365902.34512443  364428.95305768
  362974.30171149  361538.34530269  360121.03836086  358722.33573534
  357342.19280653  355980.5646727   354637.40739105  353312.6771592
  352006.33052916  350718.32441415  349448.61628337  348197.16341464
  346963.92403649  345748.85657537  344551.91985292  343373.07309271
  342212.27609855  341069.48857186  339944.67115616  338837.78474902
  337748.79068286  336677.65073149  335624.32727206  334588.78266636
  333570.98020879  332570.88350221  331588.45662241  330623.66412427
  329676.47118769  328746.84306167  327834.74591719  326940.14628585
  326063.01120824  325203.30836648  324361.0055801   323536.07158036
  322728.47550074  321938.18701184  321165.17632678  320409.4143179
  319670.87207405  318949.52158149  318245.33527593  317558.2861614
  316888.34781516  316235.49448854  315599.70072503  314980.94194864
  314379.19407671  313794.43362297  313226.63770176  312675.78411317
  312141.85102134  311624.81745094  311124.66296029  310641.36772847
  310174.91255903  309725.27894938  309292.44882867  308876.40496328
  308477.13068947  308094.60998484  307728.8274713   307379.76846876
  307047.41879238  306731.76506727  306432.79452053  306150.49503688
  305884.85516101  305635.8641356   305403.51175742  305187.78860189
  304988.68587399  304806.19544823  304640.30987024  304491.02237919
  304358.32682251  304242.21779059  304142.69052628  304059.7409493
  303993.36565702  303943.56193121  303910.32771138  303893.66163967
  303893.56302892  303910.03187414  303943.0688535   303992.67531632
  304058.85331467  304141.60555862  304240.93544285  304356.84703983
  304489.34509906  304638.43502272  304804.12295597  304986.41565248
  305185.32055956  305400.84579571  305633.00014915  305881.79303772
  306147.23465795  306429.33576065  306728.10779465  307043.56286882
  307375.71374973  307724.57380605  308090.15721636  308472.47865462
  308871.55349283  309287.39774735  309720.0280759   310169.46170619
  310635.71670307  311118.81156328  311618.7654774   312135.59826055
  312669.33034859  313219.98271112  313787.57717822  314372.13594409
  314973.6818887   315592.23849268  316227.82983303  316880.48048015
  317550.2158849   318237.06179042  318941.0446139   319662.19134579
  320400.52954491  321156.08721955  321928.89327538  322718.97683468
  323526.36767897  324351.0961323   325193.19305589  326052.68971327
  326929.61827962  327824.01106765  328735.90103166  329665.32163494
  330612.30670152  331576.89097735  332559.10927761  333558.99704256
  334576.59019158  335611.92511707  336665.03851996  337735.96803379
  338824.75127688  339931.42647096  341056.03227919  342198.6077997
  343359.19238477  344537.82632875  345734.54982381  346949.40364243
  348182.42895907  349433.66734352  350703.1605636   351990.95133786
  353297.08219365  354621.59621441  355964.53684486  357325.94788426
  358705.8732724   360104.35790788  361521.44640593  362957.18391425
  364411.61590086  365884.7881467   367376.74651487  368887.5378358
  370417.20856625  371965.80566885  373533.37638409  375119.96822339
  376725.62872132  378350.40638855  379994.34926921  381657.5058881
  383339.92500587  385041.655612    386762.7466599   388503.24808871
  390263.20927749  392042.6800613   393841.7104692   395660.35071732
  397498.65092659  399356.6622145   401234.43504461  403132.02031254
  405049.46906663  406986.83250121  408944.16165657  410921.50858197
  412918.92457879  414936.46135763  416974.17074138  419032.10465865
  421110.31482593  423208.85398279  425327.77402723  427467.12724488
  429626.96599439  431807.34270097  434008.30951753  436229.91963424
  438472.22531144  440735.27917736  443019.13389529  445323.8421574
  447649.45633046  449996.02983906  452363.61508019  454752.26480033
  457162.03174445  459592.96865003  462045.12787424  464518.56285282
  467013.32590183  469529.4696704   472067.04677113  474626.10977446
  477206.71081687  479808.90313677  482432.7387616   485078.27003745
  487745.54924059  490434.62857219  493145.55974734  495878.39560898
  498633.18769881  501409.98786479  504208.84785366  507029.81930591
  509872.95332545  512738.30217265  515625.9167174   518535.84812565
  521468.14743266  524422.86553818  527400.05275652  530399.76058984
  533422.03906171  536466.9384838   539534.50900913  542624.80062234
  545737.86267907  548873.74575909  552032.49887672  555214.17132885
  558418.81222861  561646.47001863  564897.1943944   568171.03341441
  571468.03541676  574788.24853606  578131.72069964  581498.49912035
  584888.63230324  588302.16703168  591739.1503671   595199.62914557
  598683.64997433  602191.2587039   605722.50251907  609277.4267994
  612856.07720329  616458.4991438   620084.73778554  623734.8374959
  627408.84402127  631106.80122048  634828.75323409  638574.7439393
  642344.81694719  646139.01503271  649957.38239718  653799.96127325
  657666.79418025  661557.92335805  665473.39076454  669413.23748423
  673377.50607797  677366.23705783  681379.47122969  685417.24910564
  689479.61090176  693566.59592509  697678.24501134  701814.5968686
  705975.69050776  710161.56463341  714372.25764452  718607.80700201
  722868.25174267  727153.6286972   731463.97501001  735799.32750816
  740159.72269975  744545.19611689  748955.784932    753391.52403514
  757852.44864293  762338.59364544  766849.99360479  771386.68207592
  775948.69431327  780536.06321317  785148.82201311  789787.00361639
  794450.64059101  799139.76446789  803854.40853871  808594.60366227
  813360.38105487  818151.77159243  822968.80580966  827811.51317561
  832679.92498334  837574.0700192   842493.97744486  847439.67607694
  852411.1943863   857408.5597508   862431.80143737  867480.94613325
  872556.02092043  877657.05253241  882784.06735372  887937.09064968
  893116.14964151  898321.26889858  903552.47340581  908809.78779747
  914093.23635684  919402.84222292  924738.63055902  930100.62380519
  935488.84483918  940903.31618708  946344.0600246   951811.09735871
  957304.45128964  962824.14212363  968370.19062797  973942.61721826
  979541.44195853  985166.68372117  990818.36354407  996496.49960123
 1002201.11055207 1007932.21470545 1013689.83001985 1019473.97323981
 1025284.66334795 1031121.91639365 1036985.74893727 1042876.17719056
 1048793.21701707 1054736.88304489 1060707.19221398 1066704.15846234
 1072727.79626542 1078778.11975291 1084855.14180173 1090958.87766297
 1097089.33952891 1103246.54015203 1109430.49194207 1115641.2069667
 1121878.69602063 1128142.97234844 1134434.04606817 1140751.92788614
 1147096.62817018 1153468.15695045 1159866.5229647  1166291.73747704
 1172743.80855788 1179222.74489473 1185728.55484155 1192261.24641966
 1198820.82633911 1205407.30391367 1212020.68519668 1218660.97688806
 1225328.18535975 1232022.31665731 1238743.37549989 1245491.36928511
 1252266.30208323 1259068.17864108 1265897.00338361 1272752.78041492
 1279635.51249168 1286545.20513091 1293481.86045709 1300445.48130197
 1307436.07018199 1314453.62929947 1321498.15949197 1328569.66443659
 1335668.14435251 1342793.60019725 1349946.03262013 1357125.4419635
 1364331.82718802 1371565.19017353 1378825.52927693 1386112.84362502
 1393427.13204381 1400768.3930599  1408136.62380167 1415531.82439666
 1422953.99138483 1430403.12210788 1437879.21361455 1445382.26266202
 1452912.26459305 1460469.21782981 1468053.11714261 1475663.95813561
 1483301.73612815 1490966.44615609 1498658.08182499 1506376.6399003
 1514122.11343158 1521894.49633464 1529693.78224879 1537519.96453822
 1545373.03512117 1553252.98915637 1561159.81802293 1569093.51399879
 1577054.06909388 1585041.47505639 1593055.72217588 1601096.80405578
 1609164.71045633 1617259.43206909 1625380.95932624 1633529.28240191
 1641704.3899935  1649906.27420006 1658134.92321429 1666390.32619301
 1674672.47204236 1682981.34941932 1691316.94548896 1699679.25089861
 1708068.25232636 1716483.93744716 1724926.29369418 1733395.30826032
 1741890.9668316  1750413.2586568  1758962.16895277 1767537.68396606
 1776139.78971034 1784768.47196795 1793423.71499957 1802105.50670891
 1810813.83090536 1819548.67246077 1828310.0160231  1837097.84601794
 1845912.14533452 1854752.90058513 1863620.09422566 1872513.70980713
 1881433.73066565 1890380.13858878 1899352.91915367 1908352.05372951
 1917377.52480772 1926429.31467234 1935507.40540143 1944611.77750994
 1953742.41538196 1962899.29913192 1972082.41002898 1981291.72914382
 1990527.23735008 1999788.91394374 2009076.74216916 2018390.70093952
 2027730.77035514 2037096.93032665 2046489.16057653 2055907.43923508
 2065351.7484598  2074822.06601773 2084318.37089533 2093840.6418962
 2103388.85764446 2112962.99515757 2122563.03555853 2132188.95551698
 2141840.73295366 2151518.34561707 2161221.7710849  2170950.98531369
 2180705.96844346 2190486.69610012 2200293.14519234 2210125.29246514
 2219983.11450122 2229866.58624767 2239775.68691251 2249710.39112912
 2259670.67484511 2269656.51385281 2279667.88379066 2289704.75864702
 2299767.11674807 2309854.93178511 2319968.17879482 2330106.83266691
 2340270.86814543 2350460.25830985 2360674.98065386 2370915.00797623
 2381180.31445203 2391470.87411745 2401786.66087113 2412127.64693265
 2422493.80901158 2432885.11906282 2443301.55044815 2453743.07639846
 2464209.670015   2474701.30270543 2485217.95044264 2495759.5843853
 2506326.1771293  2516917.70114735 2527534.12879038 2538175.43070109
 2548841.58216206 2559532.55358239 2570248.31683833 2580988.84369064
 2591754.10578579 2602544.07304751 2613358.72011334 2624198.01668836
 2635061.93397444 2645950.44306206 2656863.5149358  2667801.11884531
 2678763.22882743 2689749.81392788 2700760.84471849 2711796.29167029
 2722856.1251547  2733940.31379114 2745048.83105885 2756181.64538754
 2767338.72676194 2778520.04507301 2789725.57011908 2800955.26993181
 2812209.11747464 2823487.08060329 2834789.12875708 2846115.23128837
 2857465.35746373 2868839.47476825 2880237.55569011 2891659.56755189
 2903105.47928795 2914575.25975231 2926068.87771977 2937586.30016891
 2949127.49915195 2960692.44149789 2972281.09567534 2983893.43007902
 2995529.4130308  3007189.01104147 3018872.19576533 3030578.93357621]
t =  [1.04110926e+09 1.04110926e+09 1.04110927e+09 1.04110927e+09
 1.04110927e+09 1.04110927e+09 1.04110927e+09 1.04110927e+09
 1.04110927e+09 1.04110927e+09 1.04110927e+09 1.04110927e+09
 1.04110927e+09 1.04110927e+09 1.04110927e+09 1.04110928e+09
 1.04110928e+09 1.04110928e+09 1.04110928e+09 1.04110928e+09
 1.04110928e+09 1.04110928e+09 1.04110928e+09 1.04110928e+09
 1.04110928e+09 1.04110928e+09 1.04110928e+09 1.04110929e+09
 1.04110929e+09 1.04110929e+09 1.04110929e+09 1.04110929e+09
 1.04110929e+09 1.04110929e+09 1.04110929e+09 1.04110929e+09
 1.04110929e+09 1.04110929e+09 1.04110929e+09 1.04110929e+09
 1.04110930e+09 1.04110930e+09 1.04110930e+09 1.04110930e+09
 1.04110930e+09 1.04110930e+09 1.04110930e+09 1.04110930e+09
 1.04110930e+09 1.04110930e+09 1.04110930e+09 1.04110930e+09
 1.04110931e+09 1.04110931e+09 1.04110931e+09 1.04110931e+09
 1.04110931e+09 1.04110931e+09 1.04110931e+09 1.04110931e+09
 1.04110931e+09 1.04110931e+09 1.04110931e+09 1.04110931e+09
 1.04110931e+09 1.04110932e+09 1.04110932e+09 1.04110932e+09
 1.04110932e+09 1.04110932e+09 1.04110932e+09 1.04110932e+09
 1.04110932e+09 1.04110932e+09 1.04110932e+09 1.04110932e+09
 1.04110932e+09 1.04110933e+09 1.04110933e+09 1.04110933e+09
 1.04110933e+09 1.04110933e+09 1.04110933e+09 1.04110933e+09
 1.04110933e+09 1.04110933e+09 1.04110933e+09 1.04110933e+09
 1.04110933e+09 1.04110933e+09 1.04110934e+09 1.04110934e+09
 1.04110934e+09 1.04110934e+09 1.04110934e+09 1.04110934e+09
 1.04110934e+09 1.04110934e+09 1.04110934e+09 1.04110934e+09
 1.04110934e+09 1.04110934e+09 1.04110935e+09 1.04110935e+09
 1.04110935e+09 1.04110935e+09 1.04110935e+09 1.04110935e+09
 1.04110935e+09 1.04110935e+09 1.04110935e+09 1.04110935e+09
 1.04110935e+09 1.04110935e+09 1.04110935e+09 1.04110936e+09
 1.04110936e+09 1.04110936e+09 1.04110936e+09 1.04110936e+09
 1.04110936e+09 1.04110936e+09 1.04110936e+09 1.04110936e+09
 1.04110936e+09 1.04110936e+09 1.04110936e+09 1.04110937e+09
 1.04110937e+09 1.04110937e+09 1.04110937e+09 1.04110937e+09
 1.04110937e+09 1.04110937e+09 1.04110937e+09 1.04110937e+09
 1.04110937e+09 1.04110937e+09 1.04110937e+09 1.04110937e+09
 1.04110938e+09 1.04110938e+09 1.04110938e+09 1.04110938e+09
 1.04110938e+09 1.04110938e+09 1.04110938e+09 1.04110938e+09
 1.04110938e+09 1.04110938e+09 1.04110938e+09 1.04110938e+09
 1.04110939e+09 1.04110939e+09 1.04110939e+09 1.04110939e+09
 1.04110939e+09 1.04110939e+09 1.04110939e+09 1.04110939e+09
 1.04110939e+09 1.04110939e+09 1.04110939e+09 1.04110939e+09
