name =JUICE_ROI_CAL_antiJ_01
flyby =  ['2032 OCT 13 20:53:36', '2032 OCT 14 20:53:36']
Observation TW =  <SpiceCell dtype = 1, length = 0, size = 2800, card = 8, is_set = 1, adjust = 0, init = 1, base = 2004924271584, data = 2004924271632>
Cov(t) =  [ 858069.08769303  860931.87398738  863803.0771878   866682.70384345
  869570.7574673   872467.24454368  875372.16926178  878285.5357651
  881207.35044054  884137.61736     887076.34054962  890023.52629866
  892979.17778962  895943.30124667  898915.9005458   901896.97951709
  904886.54428685  907884.59861325  910891.14620852  913906.19310098
  916929.74214128  919961.79929237  923002.36811578  926051.452127
  929109.05719089  932175.18675082  935249.84420418  938333.03531763
  941424.76260903  944525.0317796   947633.84607577  950751.20869787
  953877.12524894  957011.59885718  960154.63260468  963306.23199635
  966466.39921696  969635.13970601  972812.45639469  975998.3521681
  979192.8323677   982395.89897014  985607.55725158  988827.80994636
  992056.65974275  995294.11181903  998540.16879154 1001794.83323059
 1005058.11021676 1008330.00139416 1011610.51177829 1014899.64378914
 1018197.39980068 1021503.78473099 1024818.80088243 1028142.4505114
 1031474.73843876 1034815.66597705 1038165.2378824  1041523.45626155
 1044890.32317544 1048265.84328332 1051650.01857487 1055042.85099401
 1058444.34510341 1061854.50188551 1065273.32583872 1068700.81875814
 1072136.98239329 1075581.82114646 1079035.33669638 1082497.5306763
 1085968.40739269 1089447.96749972 1092936.21524018 1096433.15209956
 1099938.77951798 1103453.10164301 1106976.11892475 1110507.83544748
 1114048.25250435 1117597.37134334 1121155.19595411 1124721.72751489
 1128296.96715889 1131880.91878153 1135473.58250799 1139074.96217008
 1142685.05875534 1146303.87320655 1149931.40926302 1153567.66779852
 1157212.64964213 1160866.35844013 1164528.79399668 1168199.95989629
 1171879.85682399 1175568.48542044 1179265.84917782 1182971.9486686
 1186686.78442095 1190410.35983529 1194142.67439752 1197883.73144715
 1201633.53137002 1205392.07450798 1209159.3641096  1212935.40044944
 1216720.18375823 1220513.71719414 1224315.99992827 1228127.0350588
 1231946.82267597 1235775.36282652 1239612.65851911 1243458.70873002
 1247313.51640858 1251177.08146225 1255049.40375524 1258930.48614833
 1262820.32844004 1266718.93038586 1270626.29475858 1274542.42022604
 1278467.30950268 1282400.96220679 1286343.37791398 1290294.55925171
 1294254.50573096 1298223.21682018 1302200.69506047 1306186.9388154
 1310181.95056889 1314185.72965433 1318198.275363   1322219.59009349
 1326249.67307351 1330288.52348888 1334336.1436535  1338392.53163113
 1342457.68967958 1346531.61685191 1350614.31215958 1354705.77777682
 1358806.01265273 1362915.01569508 1367032.78899517 1371159.3303216
 1375294.6417108  1379438.72194014 1383591.56974599 1387753.18708298
 1391923.57153771 1396102.72501064 1400290.64610931 1404487.33340067
 1408692.78870457 1412907.01052758 1417129.99733588 1421361.75086944
 1425602.26842756 1429851.55169845 1434109.59902462 1438376.40870611
 1442651.98235124 1446936.31820079 1451229.41445582 1455531.27264659
 1459841.88979025 1464161.26736543 1468489.40344934 1472826.29607987
 1477171.94665878 1481526.35316611 1485889.51354286 1490261.42911466
 1494642.09662165 1499031.51733914 1503429.68908689 1507836.60964603
 1512252.28021699 1516676.69852438 1521109.86225441 1525551.77253339
 1530002.42582977 1534461.82322087 1538929.96227438 1543406.84052002
 1547892.45896227 1552386.81390253 1556889.90629711 1561401.73355894
 1565922.29306339 1570451.58569521 1574989.60877547 1579536.359588
 1584091.83894672 1588656.04289031 1593228.9721859  1597810.62400328
 1602400.99547541 1607000.08729991 1611607.89655685 1616224.42028972
 1620849.6591274  1625483.60885147 1630126.27004541 1634777.63964151
 1639437.71453592 1644106.49524471 1648783.97861256 1653470.16144831
 1658165.04420136 1662868.62240188 1667580.89645532 1672301.86306211
 1677031.51888732 1681769.86427107 1686516.89582836 1691272.61013906
 1696037.00747877 1700810.08313201 1705591.83733176 1710382.2665524
 1715181.36723365 1719989.13954531 1724805.57862134 1729630.68458981
 1734464.45378674 1739306.88251395 1744157.97083767 1749017.71501196
 1753886.11125698 1758763.15957789 1763648.85487245 1768543.19710555
 1773446.1823965  1778357.8068312  1783278.07031478 1788206.96888682
 1793144.49855373 1798090.6591617  1803045.44537817 1808008.85701051
 1812980.88996715 1817961.54012388 1822950.80723045 1827948.68711774
 1832955.1755843  1837970.27232444 1842993.97178169 1848026.27361159
 1853067.17351758 1858116.66717114 1863174.75417232 1868241.43014915
 1873316.69069799 1878400.53536418 1883492.95837206 1888593.95923095
 1893703.53344501 1898821.6764872  1903948.38781347 1909083.66151447
 1914227.497011   1919379.88968562 1924540.83489016 1929710.33199335
 1934888.37630587 1940074.96310796 1945270.09171708 1950473.75601477
 1955685.95528475 1960906.68471974 1966135.93948242 1971373.71880658
 1976620.01781522 1981874.83160161 1987138.15935037 1992409.99473971
 1997690.3369219  2002979.18090555 2008276.52167003 2013582.35831972
 2018896.6857957  2024219.49901004 2029550.79702005 2034890.57330648
 2040238.82689567 2045595.55261789 2050960.74527488 2056334.4038472
 2061716.52309971 2067107.09776902 2072506.12679068 2077913.60345369
 2083329.52666403 2088753.89107929 2094186.69132931 2099627.92627633
 2105077.58909243 2110535.67861112 2116002.18938497 2121477.11593925
 2126960.45706498 2132452.20725279 2137952.36096624 2143460.91695466
 2148977.86820773 2154503.21344741 2160036.9470628  2165579.0634164
 2171129.56118972 2176688.434712   2182255.67828614 2187831.29055397
 2193415.2643284  2199007.59822523 2204608.28647565 2210217.32328495
 2215834.70723051 2221460.43248571 2227094.49319833 2232736.88790805
 2238387.60925659 2244046.65575891 2249714.0214938  2255389.70051487
 2261073.69130062 2266765.9878741  2272466.58423344 2278175.47882141
 2283892.66411412 2289618.1385309  2295351.89600361 2301093.93043963
 2306844.2402233  2312602.8177288  2318369.66131828 2324144.76483451
 2329928.12209618 2335719.73143222 2341519.58663294 2347327.68146487
 2353144.01422436 2358968.57713006 2364801.36845696 2370642.38190966
 2376491.61116937 2382349.05447973 2388214.70549485 2394088.55784576
 2399970.60974541 2405860.85326109 2411759.28658567 2417665.90329081
 2423580.69692553 2429503.66565316 2435434.80299686 2441374.10245742
 2447321.56216933 2453277.17405385 2459240.93622666 2465212.84213168
 2471192.88519092 2477181.06349233 2483177.37043328 2489181.79938945
 2495194.34842179 2501215.00931073 2507243.78009959 2513280.65410972
 2519325.62464116 2525378.68971134 2531439.84101528 2537509.07655352
 2543586.38957334 2549671.77330112 2555765.22571261 2561866.74001156
 2567976.30938111 2574093.93177286 2580219.59874931 2586353.30824636
 2592495.0533968  2598644.82731316 2604802.62790831 2610968.44827335
 2617142.28147938 2623324.12541687 2629513.97152075 2635711.81766693
 2641917.65687855 2648131.48215916 2654353.29136333 2660583.07747435
 2666820.83345612 2673066.55714252 2679320.23984577 2685581.87938633
 2691851.4686825  2698129.00063358 2704414.47304034 2710707.87878299
 2717009.21072296 2723318.46664198 2729635.63773442 2735960.72176964
 2742293.71156578 2748634.59992261 2754983.38459147 2761340.05669543
 2767704.61397417 2774077.04918556 2780457.35506945 2786845.52934851
 2793241.56474526 2799645.45396451 2806057.19471245 2812476.77800189
 2818904.20152839 2825339.45795707 2831782.53993563 2838233.44514426
 2844692.16621612 2851158.69576619 2857633.03145965 2864115.16420354
 2870605.09165344 2877102.80638607 2883608.30096133 2890121.57302085
 2896642.61510934 2903171.41975486 2909707.9845857  2916252.30040753
 2922804.36484002 2929364.17037582 2935931.70949136 2942506.97979384
 2949089.97374551 2955680.68379258 2962279.10753037 2968885.23566759
 2975499.06579196 2982120.59031633 2988749.80163786 2995386.6973333
 3002031.26805291 3008683.51136642 3015343.41963892 3022010.98522016
 3028686.20566978 3035369.07332498 3042059.58050784 3048757.72476843
 3055463.49666697 3062176.89374747 3068897.90830193 3075626.53260754
 3082362.76419964 3089106.59534385 3095858.0182912  3102617.03056886
 3109383.62265109 3116157.79205993 3122939.53101829 3129728.83173477
 3136525.69172412 3143330.10318432 3150142.05829932 3156961.55457702
 3163788.58240977 3170623.13930124 3177465.21740914 3184314.80887743
 3191171.91120378 3198036.51652246 3204908.61695417 3211788.20999108
 3218675.28594758 3225569.84231247 3232471.87118208 3239381.36463952
 3246298.32016888 3253222.72803779 3260154.58572748 3267093.88529783
 3274040.61879577 3280994.78369865 3287956.37204515 3294925.37586118
 3301901.79262066 3308885.61251943 3315876.83302938 3322875.44615496
 3329881.44388821 3336894.82369834 3343915.57756999 3350943.69747549
 3357979.18088185 3365022.01791678 3372072.20604607 3379129.73722236
 3386194.60338626 3393266.80200211 3400346.32500397 3407433.1643141
 3414527.31739579 3421628.77431219 3428737.53252618 3435853.58394303
 3442976.92045825 3450107.53953453 3457245.43305886 3464390.59290683
 3471543.01654108 3478702.69396373 3485869.62263769 3493043.7944221
 3500225.20116501 3507413.8403301  3514609.70188297 3521812.78328806
 3529023.07637792 3536240.57297431 3543465.2705431  3550697.16090149
 3557936.23585607 3565182.49287455 3572435.92186678 3579696.52030196
 3586964.27997267 3594239.19266119 3601521.25583917 3608810.46128504
 3616106.80076705 3623410.27175975 3630720.86412049 3638038.57532594
 3645363.3971319  3652695.32128416 3660034.34526294 3667380.46081097
 3674733.6596612  3682093.93929771 3689461.28952848 3696835.70784039
 3704217.18595538 3711605.71558585 3719001.29422316 3726403.91357732
 3733813.56534895 3741230.24703429 3748653.94839498 3756084.66693071
 3763522.3943325  3770967.12228219 3778418.84828493 3785877.5620749
 3793343.2611611  3800815.93721662 3808295.58190567 3815782.19274326
 3823275.7613923  3830776.2795069  3838283.74460845 3845798.14638956
 3853319.48237605 3860847.74421464 3868382.92354352 3875925.01789545
 3883474.01890795 3891029.91821016 3898592.71334208 3906162.39395754
 3913738.9576016  3921322.39589723 3928912.7004593  3936509.86884066
 3944113.8926561  3951724.76351236 3959342.47897043 3966967.02864804
 3974598.41011178 3982236.6149635  3989881.6347973  3997533.46718836
 4005192.1037313  4012857.53601307 4020529.76161779 4028208.77012979
 4035894.55913934 4043587.12022969 4051286.44497667 4058992.53097998
 4066705.36780435 4074424.95305593 4082151.27830759 4089884.33512497
 4097624.12112415 4105370.6278722  4113123.84692909 4120883.77592111
 4128650.40438367 4136423.72995001 4144203.7441783  4151990.43861979
 4159783.81091838 4167583.85262732 4175390.55529339 4183203.91657254
 4191023.92597339 4198850.58115826 4206683.87367288 4214523.7950564
 4222370.34298253 4230223.50899291 4238083.2846227  4245949.66755726
 4253822.6472805  4261702.22148571 4269588.38170835 4277481.11947763
 4285380.43249889 4293286.31230433 4301198.75041996 4309117.74456346
 4317043.28419641 4324975.3670448  4332913.98463601 4340859.12849142
 4348810.79634978 4356768.97765981 4364733.67016888 4372704.86540032
 4380682.55487168 4388666.73634346 4396657.40133694 4404654.54136773
 4412658.15420972 4420668.22929276 4428684.76439979 4436707.7510493
 4444737.18075428 4452773.05131141 4460815.35423787 4468864.08104548
 4476919.22954484 4484980.78914907 4493048.75767823 4501123.12664794
 4509203.88756857 4517291.03827453 4525384.57028084 4533484.47509737
 4541590.75057311 4549703.38610632 4557822.37955578 4565947.7224361
 4574079.40625686 4582217.42889177 4590361.78185548 4598512.45665776
 4606669.45118745 4614832.75482988 4623002.36548409 4631178.27466539
 4639360.47388439 4647548.96105554 4655743.7255571  4663944.7653139
 4672152.07184263 4680365.6366554  4688585.45769283 4696811.52647272
 4705043.83450842 4713282.37975648 4721527.15158523 4729778.14796198
 4738035.36040691 4746298.78043593 4754568.40603259 4762844.22871883
 4771126.24001237 4779414.43791322 4787708.81178151 4796009.3596283
 4804316.07297893 4812628.94335466 4820947.9687833  4829273.14079249
 4837604.45090592 4845941.8971683  4854285.46893324 4862635.16425681
 4870990.97467104 4879352.8917041  4887720.91342924 4896095.03138138
 4904475.23709168 4912861.52865074 4921253.89540727 4929652.33546352
 4938056.84035969 4946467.40163235 4954884.01740137 4963306.67701319
 4971735.37859951 4980170.11370634 4988610.87387625 4997057.65725879
 5005510.45540376 5013969.25985755 5022434.06878772 5030904.87153828
 5039381.6662889  5047864.44459608 5056353.19801302 5064847.92473766
 5073348.61633077 5081855.26434991 5090367.8670114  5098886.41365828
 5107410.90251924 5115941.32516255 5124477.67315343 5133019.9447392
 5141568.1314929  5150122.22498459 5158682.22348033 5167248.11632357
 5175819.90179298 5184397.5714699  5192981.11693285 5201570.53647945
 5210165.82169629 5218766.96416715 5227373.96220878 5235986.80516639
 5244605.49136951 5253230.01241382 5261860.3598923  5270496.53215379
 5279138.51854527 5287786.31742853 5296439.92040876 5305099.31908861
 5313764.51184934 5322435.4903021  5331112.24605551 5339794.77751048
 5348483.07401781 5357177.13399156 5365876.94905308 5374582.51082133
 5383293.81773019 5392010.86140736 5400733.63347819 5409462.13239649
 5418196.34751803 5426936.27730993 5435681.9134108  5444433.24745701
 5453190.27793574 5461952.99649235 5470721.39477    5479495.47127606
 5488275.21537249 5497060.62558019 5505851.69355601 5514648.41095477
 5523450.7763177  5532258.7813088  5541072.41759001 5549891.68372303
 5558716.56907703 5567547.07222738 5576383.18485021 5585224.89861971
 5594072.21213183 5602925.11476082 5611783.6051164  5620647.6748872
 5629517.31576002 5638392.52636531 5647273.29839937 5656159.62355674
 5665051.50048868 5673948.91857836 5682851.87649097 5691760.36593585
 5700674.37862071 5709593.91323167 5718518.9614861  5727449.51509973
 5736385.57277973 5745327.12391913 5754274.16723915 5763226.69447073
 5772184.6973433  5781148.17459922 5790117.11797774 5799091.51921664
 5808071.37707949 5817056.68097014 5826047.42966633 5835043.61492143
 5844045.22848773 5853052.2691663  5862064.72871934 5871082.59890743
 5880105.87855103 5889134.55706559 5898168.63328587 5907208.09898833
 5916252.94594813 5925303.17302152 5934358.76963164 5943419.73464906
 5952486.05986505 5961557.73706971 5970634.76515516 5979717.13592172
 5988804.84116855 5997897.87980941 6006996.24128041 6016099.92450981
 6025208.92131314 6034323.2235049  6043442.83003503 6052567.73272837
 6061697.92340873 6070833.40104783 6079974.15509554 6089120.18453812
 6098271.48121609 6107428.03696898 6116589.85080495 6125756.914574
 6134929.22012524 6144106.76648874 6153289.54312881 6162477.54909012
 6171670.77623877 6180869.21643999 6190072.86876044 6199281.72507597
 6208495.77726159 6217715.024406   6226939.4559887  6236169.07111308
 6245403.86167141 6254643.81955522 6263888.94389    6273139.22416507
 6282394.65952069 6291655.24186577 6300920.96310856 6310191.82241145
 6319467.81169347 6328748.92287299 6338035.15513461 6347326.4979839
 6356622.95062027 6365924.50497974 6375231.15299774 6384542.89389591
 6393859.71962056 6403181.62211746 6412508.60063053 6421840.64468224
 6431177.75353138 6440519.91914156 6449867.13347592 6459219.39581559
 6468576.69813466 6477939.03240676 6487306.39793541 6496678.78426049
 6506056.19070042 6515438.60924687 6524826.03189118 6534218.45797414
 6543615.87949809 6553018.28846504 6562425.6842382  6571838.0563755
 6581255.40425509 6590677.71989723 6600104.99532185 6609537.22992957
 6618974.41328986 6628416.54481829 6637863.61655317 6647315.62053254
 6656772.55619449 6666234.41558823 6675701.19076271 6685172.88117857
 6694649.47642405 6704130.97597479 6713617.37189825 6723108.65626177
 6732604.82856351 6742105.88088199 6751611.80529559 6761122.60132545
 6770638.25858204 6780158.77660175 6789684.1474817  6799214.36331893
 6808749.42367181 6818289.32064862 6827834.04635759 6837383.60037961
 6846937.97234204 6856497.16184079 6866061.16100285 6875629.96195521
 6885203.56431634 6894781.96022452 6904365.14181801 6913953.10873787
 6923545.85063154 6933143.36715508 6942745.65046566 6952352.69272047
 6961964.49359819 6971581.04275897 6981202.33989653 6990828.37718699
 7000459.14680662 7010094.64847168 7019734.87436974 7029379.81668854
 7039029.47516691 7048683.8394857  7058342.90939879 7068006.67711292
 7077675.13483502 7087348.28234152 7097026.1118507  7106708.61558106
 7116395.79333158 7126087.63480414 7135784.13981277 7145485.30059508
 7155191.10938889 7164901.56603076 7174616.66276995 7184336.39185591
 7194060.75314776 7203789.73636873 7213523.34139295 7223261.56048911
 7233004.38592613 7242751.81760071 7252503.84779322 7262260.46878434
 7272021.68049325 7281787.4726648  7291557.8452332  7301332.79049837
 7311112.3007606  7320896.37597661 7330685.00590486 7340478.19051708
 7350275.92213283 7360078.19307206 7369885.00332895 7379696.34523487
 7389512.21112162 7399332.60100584 7409157.50466808 7418986.92213998
 7428820.84577263 7438659.2679176  7448502.18862895 7458349.60026965
 7468201.49520316 7478057.87350596 7487918.7249809  7497784.04971942
 7507653.84010433 7517528.08851892 7527406.79507703 7537289.95217339
 7547177.55220322 7557069.59530275 7566966.07129734 7576866.9803381
 7586772.31483969 7596682.06721726 7606596.23764427 7616514.81854736
 7626437.80235361 7636365.18925889 7646296.96911123 7656233.14212132]
t =  [1.03462908e+09 1.03462908e+09 1.03462908e+09 1.03462908e+09
 1.03462908e+09 1.03462908e+09 1.03462908e+09 1.03462908e+09
 1.03462908e+09 1.03462908e+09 1.03462908e+09 1.03462908e+09
 1.03462908e+09 1.03462909e+09 1.03462909e+09 1.03462909e+09
 1.03462909e+09 1.03462909e+09 1.03462909e+09 1.03462909e+09
 1.03462909e+09 1.03462909e+09 1.03462909e+09 1.03462909e+09
 1.03462909e+09 1.03462909e+09 1.03462909e+09 1.03462909e+09
 1.03462909e+09 1.03462909e+09 1.03462909e+09 1.03462909e+09
 1.03462909e+09 1.03462909e+09 1.03462909e+09 1.03462910e+09
 1.03462910e+09 1.03462910e+09 1.03462910e+09 1.03462910e+09
 1.03462910e+09 1.03462910e+09 1.03462910e+09 1.03462910e+09
 1.03462910e+09 1.03462910e+09 1.03462910e+09 1.03462910e+09
 1.03462910e+09 1.03462910e+09 1.03462910e+09 1.03462910e+09
 1.03462910e+09 1.03462910e+09 1.03462910e+09 1.03462910e+09
 1.03462910e+09 1.03462911e+09 1.03462911e+09 1.03462911e+09
 1.03462911e+09 1.03462911e+09 1.03462911e+09 1.03462911e+09
 1.03462911e+09 1.03462911e+09 1.03462911e+09 1.03462911e+09
 1.03462911e+09 1.03462911e+09 1.03462911e+09 1.03462911e+09
 1.03462911e+09 1.03462911e+09 1.03462911e+09 1.03462911e+09
 1.03462911e+09 1.03462911e+09 1.03462911e+09 1.03462912e+09
 1.03462912e+09 1.03462912e+09 1.03462912e+09 1.03462912e+09
 1.03462912e+09 1.03462912e+09 1.03462912e+09 1.03462912e+09
 1.03462912e+09 1.03462912e+09 1.03462912e+09 1.03462912e+09
 1.03462912e+09 1.03462912e+09 1.03462912e+09 1.03462912e+09
 1.03462912e+09 1.03462912e+09 1.03462912e+09 1.03462912e+09
 1.03462912e+09 1.03462913e+09 1.03462913e+09 1.03462913e+09
 1.03462913e+09 1.03462913e+09 1.03462913e+09 1.03462913e+09
 1.03462913e+09 1.03462913e+09 1.03462913e+09 1.03462913e+09
 1.03462913e+09 1.03462913e+09 1.03462913e+09 1.03462913e+09
 1.03462913e+09 1.03462913e+09 1.03462913e+09 1.03462913e+09
 1.03462913e+09 1.03462913e+09 1.03462913e+09 1.03462914e+09
 1.03462914e+09 1.03462914e+09 1.03462914e+09 1.03462914e+09
 1.03462914e+09 1.03462914e+09 1.03462914e+09 1.03462914e+09
 1.03462914e+09 1.03462914e+09 1.03462914e+09 1.03462914e+09
 1.03462914e+09 1.03462914e+09 1.03462914e+09 1.03462914e+09
 1.03462914e+09 1.03462914e+09 1.03462914e+09 1.03462914e+09
 1.03462914e+09 1.03462915e+09 1.03462915e+09 1.03462915e+09
 1.03462915e+09 1.03462915e+09 1.03462915e+09 1.03462915e+09
 1.03462915e+09 1.03462915e+09 1.03462915e+09 1.03462915e+09
 1.03462915e+09 1.03462915e+09 1.03462915e+09 1.03462915e+09
 1.03462915e+09 1.03462915e+09 1.03462915e+09 1.03462915e+09
