name =JUICE_ROI_CAL_J_01
flyby =  ['2032 NOV 16 05:53:16', '2032 NOV 17 05:53:16']
Observation TW =  <SpiceCell dtype = 1, length = 0, size = 4400, card = 24, is_set = 1, adjust = 0, init = 1, base = 2004925611888, data = 2004925611936>
Cov(t) =  [7655665.71423115 7628952.55885217 7602274.2639238  7575630.93763953
 7549022.68090702 7522449.59489604 7495911.78852714 7469409.36096998
 7442942.42162681 7416511.07266078 7390115.41649435 7363755.56324754
 7337431.61582939 7311143.67740643 7284891.85881017 7258676.26368944
 7232496.99594841 7206354.16712336 7180247.87914051 7154178.24400189
 7128145.36657414 7102149.35197537 7076190.31289985 7050268.35493491
 7024383.5839168  6998536.11322371 6972726.04915549 6946953.49825815
 6921218.57458498 6895521.38272246 6869862.03716871 6844240.64538559
 6818657.31507287 6793112.16138746 6767605.29248475 6742136.81675815
 6716706.85001374 6691315.50108491 6665962.8790395  6640649.10032161
 6615374.27205421 6590138.51110022 6564941.92739804 6539784.63111417
 6514666.73972946 6489588.36382919 6464549.61422263 6439550.60899552
 6414591.45936706 6389672.27677601 6364793.17989923 6339954.27823983
 6315155.69086068 6290397.53000653 6265679.90813372 6241002.94487147
 6216366.75305991 6191771.44574571 6167217.14310846 6142703.9585678
 6118232.00574442 6093801.40535153 6069412.26907758 6045064.71798171
 6020758.86641156 5996494.82890617 5972272.7270283  5948092.67565824
 5923954.78986152 5899859.19168528 5875805.99652326 5851795.31994795
 5827827.2844707  5803902.00372845 5780019.60053038 5756180.19108047
 5732383.89174547 5708630.82576144 5684921.10979048 5661254.86065449
 5637632.20199734 5614053.25091592 5590518.12465914 5567026.94725278
 5543579.83399958 5520176.90916613 5496818.29052018 5473504.09596773
 5450234.4501151  5427009.47109848 5403829.2771836  5380693.99328967
 5357603.73789444 5334558.62959612 5311558.79359883 5288604.34653532
 5265695.41378359 5242832.11432787 5220014.56725677 5197242.8981841
 5174517.22635837 5151837.67112235 5129204.35829458 5106617.40735675
 5084076.93787421 5061583.07583802 5039135.9388199  5016735.65290739
 4994382.33789825 4972076.1136555  4949817.1063827  4927605.4360218
 4905441.22256834 4883324.59230634 4861255.66528628 4839234.56160013
 4817261.40757559 4795336.32127312 4773459.42902845 4751630.85099016
 4729850.70731846 4708119.12429491 4686436.22207425 4664802.12082265
 4643216.94679812 4621680.82012728 4600193.86093076 4578756.19536533
 4557367.94147267 4536029.22531797 4514740.16688032 4493500.88610867
 4472311.50889355 4451172.15506632 4430082.94441307 4409044.00260363
 4388055.44927544 4367117.404005   4346229.99219394 4325393.3312791
 4304607.54645618 4283872.75693266 4263189.08182797 4242556.64598716
 4221975.56829331 4201445.96752451 4180967.9681237  4160541.68859793
 4140167.24733186 4119844.76831337 4099574.36771481 4079356.16919061
 4059190.29050244 4039076.84925937 4019015.96856936 3999007.76567322
 3979052.35764043 3959149.86697493 3939300.41032691 3919504.10416397
 3899761.07032931 3880071.42299913 3860435.28354323 3840852.76753197
 3821323.99031244 3801849.07249363 3782428.12891003 3763061.27415226
 3743748.62800632 3724490.30450833 3705286.41742955 3686137.08566916
 3667042.42240097 3648002.54051231 3629017.55795025 3610087.58518143
 3591212.73948109 3572393.13243939 3553628.87532291 3534920.08434244
 3516266.87004757 3497669.34264132 3479127.61720062 3460641.8031648
 3442212.00960318 3423838.35038783 3405520.93205507 3387259.86763358
 3369055.26455337 3350907.22983423 3332815.87517836 3314781.30671242
 3296803.63012805 3278882.95572613 3261019.38825484 3243213.03200616
 3225463.995808   3207772.38129077 3190138.29624918 3172561.8429628
 3155043.12320762 3137582.24317005 3120179.30354369 3102834.40449221
 3085547.65051386 3068319.14063637 3051148.97333071 3034037.25132597
 3016984.07030042 2999989.53175819 2983053.73176971 2966176.76580303
 2949358.73345567 2932599.72891336 2915899.84573168 2899259.18151762
 2882677.82848827 2866155.87820247 2849693.42619184 2833290.56107876
 2816947.37696373 2800663.96259374 2784440.40600999 2768276.79909438
 2752173.22839708 2736129.77973363 2720146.54268039 2704223.60150377
 2688361.03970651 2672558.9444719  2656817.39621615 2641136.48047826
 2625516.27751974 2609956.86677994 2594458.33125744 2579020.74870079
 2563644.19601699 2548328.75357803 2533074.49652651 2517881.49913396
 2502749.8390553  2487679.5873226  2472670.81972987 2457723.60687878
 2442838.0184505  2428014.12737334 2413252.00140572 2398551.70735598
 2383913.31519768 2369336.88975719 2354822.49488141 2340370.1975004
 2325980.05806853 2311652.14143786 2297386.50735197 2283183.21452626
 2269042.32462277 2254963.8942188  2240947.9788346  2226994.63685536
 2213103.92160575 2199275.88532487 2185510.58303531 2171808.06343698
 2158168.3792637  2144591.57823034 2131077.70691975 2117626.81456318
 2104238.94539878 2090914.14250357 2077652.45149688 2064453.9130514
 2051318.5666642  2038246.45432116 2025237.61184809 2012292.07874601
 1999409.88959607 1986591.07775148 1973835.67892232 1961143.72392737
 1948515.24233282 1935950.26598345 1923448.82186236 1911010.93567617
 1898636.63533275 1886325.94275303 1874078.88318188 1861895.4770541
 1849775.74349049 1837719.70368631 1825727.37405921 1813798.76969189
 1801933.90766687 1790132.80032291 1778395.45864401 1766721.89554074
 1755112.11812518 1743566.13649567 1732083.95606614 1720665.58086604
 1709311.01673229 1698020.2648551  1686793.32502364 1675630.19876499
 1664530.88299908 1653495.37323144 1642523.66663826 1631615.75480586
 1620771.63198899 1609991.28790475 1599274.71083653 1588621.89062995
 1578032.81263737 1567507.46076833 1557045.82043231 1546647.87259185
 1536313.59675971 1526042.97388839 1515835.97957409 1505692.59178967
 1495612.784143   1485596.52878548 1475643.79921301 1465754.56460874
 1455928.7926984  1446166.4524984  1436467.50876691 1426831.92480627
 1417259.66515821 1407750.68927117 1398304.95871029 1388922.43087894
 1379603.06173303 1370346.80838861 1361153.62386519 1352023.45974217
 1342956.26871285 1333951.99943396 1325010.59913483 1316132.01612017
 1307316.19389814 1298563.0778715  1289872.60951954 1281244.72892
 1272679.37716523 1264176.49149592 1255736.00777095 1247357.8628318
 1239041.9897432  1230788.32021108 1222596.78689546 1214467.31799537
 1206399.84342673 1198394.28946068 1190450.58105551 1182568.64408402
 1174748.40085783 1166989.77240794 1159292.68066111 1151657.04406989
 1144082.77984206 1136569.8060662  1129118.03674859 1121727.38748445
 1114397.77054745 1107129.09703435 1099921.27890976 1092774.22491181
 1085687.84264451 1078662.04057211 1071696.7240335  1064791.79728593
 1057947.16544674 1051162.72997562 1044438.39384731 1037774.05708572
 1031169.61872437 1024624.9786656  1018140.03397043 1011714.68076934
 1005348.81607225  999042.33416084  992795.12844984  986607.09324812
  980478.11967871  974408.10036163  968396.92538484  962444.48408364
  956550.66672082  950715.36114932  944938.45454289  939219.83502798
  933559.38844673  927957.0000391   922412.55602675  916925.93996204
  911497.03693054  906125.72994981  900811.90159018  895555.43546092
  890356.21321294  885214.1161158   880129.02651509  875100.82495806
  870129.39170004  865214.60811473  860356.35346268  855554.50862348
  850808.95291286  846119.56551013  841486.22679076  836908.81571017
  832387.21118434  827921.29337584  823510.94117325  819156.03352494
  814856.4506789   810612.07136009  806422.77604229  802288.44417259
  798208.95542769  794184.19087717  790214.03071422  786298.35546569
  782437.04711094  778629.98690408  774877.05653762  771178.13921474
  767533.1172244   763941.87476228  760404.29555173  756920.26393132
  753489.6658515   750112.38694238  746788.31355574  743517.33371663
  740299.3352815   737134.20693477  734021.83909564  730962.12188022
  727954.94748059  725000.20817147  722097.79723145  719247.60977534
  716449.54114964  713703.48780884  711009.34810318  708367.02076198
  705776.40572496  703237.40487784  700749.92038717  698313.85667735
  695929.11879429  693595.61316121  691313.24824807  689081.93328556
  686901.57897723  684772.09812475  682693.40442715  680665.41314844
  678688.04169866  676761.20833893  674884.83369951  673058.83952681
  671283.14927679  669557.68862259  667882.38447857  666257.16554943
  664681.96279372  663156.70853129  661681.33694805  660255.78451548
  658879.98905377  657553.89082814  656277.43165278  655050.55532195
  653873.20795631  652745.33733011  651666.89325822  650637.82789839
  649658.09516031  648727.65104837  647846.45392011  647014.46390061
  646231.64356115  645497.95737376  644813.37198052  644177.85637886
  643591.38154688  643053.92066858  642565.44927531  642125.94495168
  641735.38751688  641393.75912206  641101.04401167  640857.22878686
  640662.30220658  640516.25529548  640419.08136812  640370.77594943
  640371.3368231   640420.7639414   640519.05956562  640666.22824159
  640862.2767227   641107.21405034  641401.0515295   641743.80262065
  642135.48313967  642576.1109936   643065.70642028  643604.29189073
  644191.89192768  644828.53340034  645514.2453828   646249.05892857
  647033.00744595  647866.12651255  648748.45360569  649680.02864873
  650660.89333153  651691.09169694  652770.66988205  653899.67577511
  655078.15960723  656306.17364972  657583.77182684  658911.01038923
  660287.94756726  661714.64313962  663191.15933017  664717.55971061
  666293.91013828  667920.27833615  669596.73338776  671323.3466304
  673100.19119127  674927.34143795  676804.87395497  678732.86703589
  680711.40008944  682740.55489331  684820.41407511  686951.06240812
  689132.58622976  691365.07277371  693648.61137123  695983.29282554
  698369.20869933  700806.45260142  703295.11951697  705835.30505083
  708427.10705521  711070.62366786  713765.95497668  716513.20227954
  719312.46725258  722163.85346759  725067.46560384  728023.40857154
  731031.78911692  734092.71498961  737206.294021    740372.63611839
  743591.85088496  746864.04965843  750189.34460384  753567.8477167
  756999.67266542  760484.93383939  764023.74530658  767616.22274641
  771262.48245272  774962.64024582  778716.81385236  782525.12008338
  786387.67726002  790304.60414242  794276.01876748  798302.04061881
  802382.78951197  806518.3843845   810708.9455659   814954.59361398
  819255.44805833  823611.63017656  828023.25972164  832490.45774534
  837013.34535815  841592.04239515  846226.6699374   850917.34902553
  855664.19927892  860467.3415126   865326.89640448  870242.98306747
  875215.72223344  880245.23252001  885331.63366302  890475.04510596
  895675.58449323  900933.37054528  906248.52160094  911621.1540516
  917051.38532802  922539.33240298  928085.11018008  933688.83509594
  939350.62091667  945070.58238975  950848.83365973  956685.48658578
  962580.65397945  968534.44797238  974546.97828532  980618.35556623
  986748.68970972  992938.08807737  999186.6595276  1005494.50973194
 1011861.74525583 1018288.47179722 1024774.79232495 1031320.81068716
 1037926.62980099 1044592.34974144 1051318.07145233 1058103.89488669
 1064949.91704599 1071856.23644693 1078822.94794779 1085850.14726702
 1092937.92904138 1100086.38478359 1107295.60686522 1114565.68652534
 1121896.71177713 1129288.77149851 1136741.95339024 1144256.34183086
 1151832.02278809 1159469.07814653 1167167.59067176 1174927.64188432
 1182749.30982989 1190632.6734501  1198577.81040568 1206584.79479559
 1214653.70163344 1222784.60461979 1230977.5738098  1239232.68097582
 1247549.99342848 1255929.57943266 1264371.50589424 1272875.83594173
 1281442.63368642 1290071.96185761 1298763.87933227 1307518.44600219
 1316335.72035741 1325215.75696385 1334158.61228149 1343164.33796755
 1352232.98676031 1361364.60997192 1370559.25487755 1379816.96986892
 1389137.80189874 1398521.79381865 1407968.98964055 1417479.43192871
 1427053.1590849  1436690.21162802 1446390.62498282 1456154.43581367
 1465981.67932889 1475872.3864779  1485826.58950103 1495844.31918097
 1505925.601987   1516070.4657332  1526278.93677691 1536551.03710996
 1546886.79110119 1557286.21776244 1567749.33754558 1578276.16945258
 1588866.72803795 1599521.0293565  1610239.08802014 1621020.91414707
 1631866.5194168  1642775.91407148 1653749.10381958 1664786.09703926
 1675886.89651861 1687051.50671717 1698279.93068056 1709572.16684716
 1720928.21539448 1732348.07510025 1743831.74009566 1755379.20632033
 1766990.46832999 1778665.51599607 1790404.34217735 1802206.93393411
 1814073.28025408 1826003.36877078 1837997.18237395 1850054.70595405
 1862175.92306697 1874360.812491   1886609.35507962 1898921.53037267
 1911297.31309976 1923736.68131527 1936239.6070863  1948806.06468179
 1961436.02709439 1974129.46245469 1986886.34118261 1999706.63245363
 2012590.30053336 2025537.31204367 2038547.63237772 2051621.22200764
 2064758.04508055 2077958.05958221 2091221.22598681 2104547.5035828
 2117936.84669173 2131389.21220366 2144904.5558496  2158482.82836724
 2172123.98314337 2185827.97243308 2199594.74347245 2213424.24753243
 2227316.4295612  2241271.23729131 2255288.61737031 2269368.51138534
 2283510.86378949 2297715.61797947 2311982.7122674  2326312.0879132
 2340703.68514929 2355157.43909987 2369673.28928812 2384251.16876168
 2398891.01365255 2413592.75911391 2428356.33515211 2443181.67493983
 2458068.71070036 2473017.36949666 2488027.58166278 2503099.27658291
 2518232.37844544 2533426.81620097 2548682.51217629 2563999.39208171
 2579377.38075599 2594816.39780774 2610316.36631052 2625877.20849595
 2641498.84134345 2657181.1853787  2672924.16031486 2688727.68059112
 2704591.66576997 2720516.02864631 2736500.68569608 2752545.55263163
 2768650.53985512 2784815.56153007 2801040.53108564 2817325.35661907
 2833669.95006898 2850074.22266855 2866538.08029737 2883061.43431412
 2899644.18916809 2916286.25328224 2932987.53442174 2949747.93496201
 2966567.36133078 2983445.71932624 3000382.90933498 3017378.83587406
 3034433.40285837 3051546.50876686 3068718.05790837 3085947.94754175
 3103236.07918513 3120582.35380055 3137986.66687988 3155448.91825062
 3172969.00721096 3190546.82756655 3208182.27753438 3225875.25482848
 3243625.65164778 3261433.36635655 3279298.29012611 3297220.31866374
 3315199.34721661 3333235.26547889 3351327.96775447 3369477.34791225
 3387683.29424512 3405945.69972873 3424264.45692838 3442639.45281016
 3461070.58083277 3479557.72711845 3498100.78259225 3516699.63780886
 3535354.17768467 3554064.29200991 3572829.87022786 3591650.79611972
 3610526.95841085 3629458.24550251 3648444.54010999 3667485.73175635
 3686581.70246728 3705732.33933795 3724937.52918358 3744197.15309361
 3763511.09728583 3782879.2477132  3802301.48457852 3821777.69328047
 3841307.75897395 3860891.56103919 3880528.9841189  3900219.91263267
 3919964.22520061 3939761.80763715 3959612.53808955 3979516.30007682
 3999472.97692813 4019482.4461312  4039544.59061006 4059659.29311807
 4079826.4305418  4100045.88526772 4120317.5395304  4140641.26967197
 4161016.95951775 4181444.48507766 4201923.72796584 4222454.5696746
 4243036.88576057 4263670.55744611 4284355.46584908 4305091.48612548
 4325878.49915769 4346716.38574043 4367605.02068019 4388544.28654092
 4409534.05792221 4430574.21525115 4451664.63889412 4472805.20318501
 4493995.78834187 4515236.27453758 4536526.53588554 4557866.45244106
 4579255.90422921 4600694.76518849 4622182.91728123 4643720.23435392
 4665306.59628932 4686941.88296386 4708625.96812186 4730358.73159943
 4752140.05324007 4773969.80672761 4795847.87189252 4817774.1285858
 4839748.45047119 4861770.71948821 4883840.80930887 4905958.59984141
 4928123.97103565 4950336.79660769 4972596.95656257 4994904.33095898
 5017258.79359385 5039660.22460504 5062108.50419573 5084603.5062791
 5107145.11328466 5129733.19922222 5152367.64452763 5175048.32972048
 5197775.12898321 5220547.92297441 5243366.5924469  5266231.01178767
 5289141.06189281 5312096.62377007 5335097.5720432  5358143.79008199
 5381235.15268486 5404371.54125677 5427552.83732348 5450778.91596934
 5474049.65893278 5497364.94808207 5520724.65881529 5544128.67323146
 5567576.87356801 5591069.13556344 5614605.34392076 5638185.37461959
 5661809.11041692 5685476.43422187 5709187.22239631 5732941.35812449
 5756738.72475046 5780579.19904208 5804462.66463387 5828389.0053275
 5852358.09831943 5876369.82997872 5900424.0777996  5924520.72621547
 5948659.65983839 5972840.75662669 5997063.90152049 6021328.97964508
 6045635.86944287 6069984.45638014 6094374.62611445 6118806.25759141
 6143279.23912752 6167793.450014   6192348.77663464 6216945.10557413
 6241582.31665651 6266260.29683409 6290978.93326797 6315738.10633199
 6340537.70357301 6365377.61274941 6390257.71480111 6415177.90022802
 6440138.05035593 6465138.05374892 6490177.79919055 6515257.16859757
 6540376.05116341 6565534.33630544 6590731.9065452  6615968.6517188
 6641244.46189051 6666559.22019975 6691912.81952628 6717305.14342841
 6742736.08284098 6768205.52893336 6793713.36590198 6819259.48535628
 6844843.77914376 6870466.13211015 6896126.43655015 6921824.58499986
 6947560.46296481 6973333.96586281 6999144.9796448  7024993.39776946
 7050879.11394195 7076802.01478905 7102761.99447995 7128758.94743305
 7154792.76095976 7180863.32994811 7206970.54953784 7233114.30773319
 7259294.50261481 7285511.02265218 7311763.76393442 7338052.62281567
 7364377.48847229 7390738.25774633 7417134.82773765 7443567.08833526
 7470034.93712625 7496538.27195741 7523076.98343633 7549650.97240384
 7576260.12994971 7602904.35491488 7629583.54640257 7656297.59622996]
t =  [1.03751183e+09 1.03751183e+09 1.03751184e+09 1.03751184e+09
 1.03751184e+09 1.03751184e+09 1.03751184e+09 1.03751184e+09
 1.03751184e+09 1.03751184e+09 1.03751185e+09 1.03751185e+09
 1.03751185e+09 1.03751185e+09 1.03751185e+09 1.03751185e+09
 1.03751185e+09 1.03751185e+09 1.03751186e+09 1.03751186e+09
 1.03751186e+09 1.03751186e+09 1.03751186e+09 1.03751186e+09
 1.03751186e+09 1.03751186e+09 1.03751187e+09 1.03751187e+09
 1.03751187e+09 1.03751187e+09 1.03751187e+09 1.03751187e+09
 1.03751187e+09 1.03751187e+09 1.03751188e+09 1.03751188e+09
 1.03751188e+09 1.03751188e+09 1.03751188e+09 1.03751188e+09
 1.03751188e+09 1.03751188e+09 1.03751189e+09 1.03751189e+09
 1.03751189e+09 1.03751189e+09 1.03751189e+09 1.03751189e+09
 1.03751189e+09 1.03751189e+09 1.03751190e+09 1.03751190e+09
 1.03751190e+09 1.03751190e+09 1.03751190e+09 1.03751190e+09
 1.03751190e+09 1.03751191e+09 1.03751191e+09 1.03751191e+09
 1.03751191e+09 1.03751191e+09 1.03751191e+09 1.03751191e+09
 1.03751191e+09 1.03751192e+09 1.03751192e+09 1.03751192e+09
 1.03751192e+09 1.03751192e+09 1.03751192e+09 1.03751192e+09
 1.03751192e+09 1.03751193e+09 1.03751193e+09 1.03751193e+09
 1.03751193e+09 1.03751193e+09 1.03751193e+09 1.03751193e+09
 1.03751193e+09 1.03751194e+09 1.03751194e+09 1.03751194e+09
 1.03751194e+09 1.03751194e+09 1.03751194e+09 1.03751194e+09
 1.03751194e+09 1.03751195e+09 1.03751195e+09 1.03751195e+09
 1.03751195e+09 1.03751195e+09 1.03751195e+09 1.03751195e+09
 1.03751195e+09 1.03751196e+09 1.03751196e+09 1.03751196e+09
 1.03751196e+09 1.03751196e+09 1.03751196e+09 1.03751196e+09
 1.03751196e+09 1.03751197e+09 1.03751197e+09 1.03751197e+09
 1.03751197e+09 1.03751197e+09 1.03751197e+09 1.03751197e+09
 1.03751197e+09 1.03751198e+09 1.03751198e+09 1.03751198e+09
 1.03751198e+09 1.03751198e+09 1.03751198e+09 1.03751198e+09
 1.03751198e+09 1.03751199e+09 1.03751199e+09 1.03751199e+09
 1.03751199e+09 1.03751199e+09 1.03751199e+09 1.03751199e+09
 1.03751199e+09 1.03751200e+09 1.03751200e+09 1.03751200e+09
 1.03751200e+09 1.03751200e+09 1.03751200e+09 1.03751200e+09
 1.03751201e+09 1.03751201e+09 1.03751201e+09 1.03751201e+09
 1.03751201e+09 1.03751201e+09 1.03751201e+09 1.03751201e+09
 1.03751202e+09 1.03751202e+09 1.03751202e+09 1.03751202e+09
 1.03751202e+09 1.03751202e+09 1.03751202e+09 1.03751202e+09
 1.03751203e+09 1.03751203e+09 1.03751203e+09 1.03751203e+09
 1.03751203e+09 1.03751203e+09 1.03751203e+09 1.03751203e+09
 1.03751204e+09 1.03751204e+09 1.03751204e+09 1.03751204e+09
