name =JUICE_ROI_CAL_J_01
flyby =  ['2032 DEC 27 21:06:34', '2032 DEC 28 21:06:34']
Observation TW =  <SpiceCell dtype = 1, length = 0, size = 4400, card = 24, is_set = 1, adjust = 0, init = 1, base = 2004925611888, data = 2004925611936>
Cov(t) =  [7655612.13280473 7627322.85093917 7599069.26953461 7570851.50375358
 7542669.66909665 7514523.88140229 7486414.25684688 7458340.91194461
 7430303.96354738 7402303.52884472 7374339.72279923 7346412.6684074
 7318522.48130299 7290669.28002452 7262853.18344732 7235074.31078327
 7207332.78158065 7179628.71572374 7151962.2334327  7124333.45526314
 7096742.50210589 7069189.49518656 7041674.55606526 7014197.80663613
 6986759.36912698 6959359.36609882 6931997.92044536 6904675.15539261
 6877391.19199633 6850146.15915276 6822940.17857588 6795773.37481511
 6768645.87274925 6741557.79758578 6714509.27486017 6687500.43043515
 6660531.39050002 6633602.28156978 6606713.23049469 6579864.36445895
 6553055.81095    6526287.69777651 6499560.15306797 6472873.30527364
 6446227.28316162 6419622.21581773 6393058.23264449 6366535.46092807
 6340054.03556868 6313614.08447641 6287215.73830918 6260859.12803573
 6234544.38493438 6208271.64059177 6182041.02690145 6155852.67606256
 6129706.72057841 6103603.29325508 6077542.52719988 6051524.55581988
 6025549.51282036 5999617.53220322 5973728.74826533 5947883.2955969
 5922081.30907977 5896322.92152399 5870608.27311678 5844937.49723853
 5819310.7299198  5793728.10747362 5768189.76649362 5742695.84385198
 5717246.47669743 5691841.8024532  5666481.95881484 5641167.08374811
 5615897.31548524 5590672.79252017 5565493.65361557 5540360.03779592
 5515272.08434445 5490229.93280072 5465233.72295809 5440283.59486123
 5415379.68652029 5390522.1430451  5365711.10293089 5340946.70720079
 5316229.09711566 5291558.41417128 5266934.80009532 5242358.39684444
 5217829.34660131 5193347.79177142 5168913.87498007 5144527.73906905
 5120189.52709354 5095899.38231867 5071657.44821628 5047463.8684614
 5023318.78692886 4999222.3476897  4975174.69280316 4951175.97113531
 4927226.32511516 4903325.89956214 4879474.83947336 4855673.29001968
 4831921.39654177 4808219.30454607 4784567.1597007  4760965.10783136
 4737413.29491702 4713911.86708571 4690460.97060994 4667060.75190103
 4643711.35750748 4620412.93410944 4597165.62851371 4573969.58764904
 4550824.95856136 4527731.88629223 4504690.52234559 4481701.01196818
 4458763.5026256  4435878.14187578 4413045.07736371 4390264.45681626
 4367536.42803669 4344861.13889942 4322238.73734436 4299669.37137143
 4277153.18903486 4254690.33843751 4232280.96772501 4209925.22507991
 4187623.25871569 4165375.2168707  4143181.24780207 4121041.49775034
 4098956.11905465 4076925.2579567  4054949.06272568 4033027.68161763
 4011161.26286889 3989349.95468924 3967593.90525525 3945893.26270326
 3924248.1751225  3902658.79054797 3881125.25695331 3859647.72224356
 3838226.33424755 3816861.24070391 3795552.58926507 3774300.52748856
 3753105.20282586 3731966.76261458 3710885.35213866 3689861.12235314
 3668894.21826903 3647984.78668834 3627132.97425872 3606338.92746502
 3585602.79262081 3564924.71585984 3544304.8431273  3523743.32017109
 3503240.29253292 3482795.90553935 3462410.30429275 3442083.63366205
 3421816.03827358 3401607.66250164 3381458.65045905 3361369.14598759
 3341339.2908131  3321369.23188225 3301459.11032462 3281609.06880028
 3261819.24964897 3242089.79487994 3222420.8461617  3202812.54481167
 3183265.03178569 3163778.4476675  3144352.93265716 3124988.62656081
 3105685.6687812  3086444.19830581 3067264.35369573 3048146.27307457
 3029090.09411717 3010095.95403822 2991163.98958079 2972294.3352761
 2953487.13035228 2934742.50833334 2916060.60395913 2897441.55143901
 2878885.48443971 2860392.53607317 2841962.83888421 2823596.52483812
 2805293.72530818 2787054.57106301 2768879.19225388 2750767.71840188
 2732720.27838499 2714737.00042504 2696818.01207463 2678963.44020383
 2661173.41098692 2643448.04826532 2625787.48003432 2608191.82867018
 2590661.21742851 2573195.76880091 2555795.60450105 2538460.84545011
 2521191.61176216 2503988.02273257 2486850.19682225 2469778.2516431
 2452772.30394349 2435832.46959366 2418958.86357103 2402151.59994539
 2385410.79186409 2368736.55153699 2352128.99022145 2335588.21820724
 2319114.34329262 2302707.47680974 2286367.72453906 2270095.19274679
 2253889.98665465 2237752.2104242  2221681.96714116 2205679.35879968
 2189744.48628649 2173877.44936496 2158078.34665923 2142347.27563808
 2126684.33259886 2111089.61265138 2095563.20970165 2080105.21643559
 2064715.72430277 2049394.82349996 2034142.60155829 2018959.14891889
 2003844.55051811 1988798.89137134 1973822.2551628  1958914.72422623
 1944076.37952685 1929307.30064469 1914607.56575781 1899977.25162555
 1885416.43357177 1870925.18546797 1856503.57971652 1842151.68723376
 1827869.5774332  1813657.31820858 1799514.97591703 1785442.61536219
 1771440.2997773  1757508.08953314 1743646.0472285  1729854.23000261
 1716132.69463857 1702481.49626481 1688900.68833835 1675390.322628
 1661950.44919765 1648581.1163895  1635282.37080749 1622054.25730065
 1608896.8189465  1595810.09703459 1582794.13105002 1569848.95865706
 1556974.61568283 1544171.13610094 1531438.55200554 1518776.89245122
 1506186.18808025 1493666.46412879 1481217.74506506 1468840.05340848
 1456533.40971404 1444297.83255676 1432133.33851631 1420039.94216171
 1408017.65603624 1396066.49064236 1384186.45442695 1372377.55376652
 1360639.79295274 1348973.17417805 1337377.69752142 1325853.36093439
 1314400.16022722 1303018.08905526 1291707.13787085 1280467.29805531
 1269298.55567837 1258200.89564364 1247174.30063486 1236218.75110367
 1225334.22525752 1214520.6990479  1203778.14615867 1193106.53799362
 1182505.84366768 1171976.02999578 1161517.0614823  1151128.90031108
 1140811.50633562 1130564.83706978 1120388.8476787  1110283.49097007
 1100248.7164682  1090284.47408286 1080390.70857665 1070567.36324754
 1060814.37899794 1051131.69432819 1041519.24533049 1031976.96568323
 1022504.78664575 1013102.63705345 1003770.44331353  994508.12940093
  985315.61685492  976192.82477608  967139.66982374  958156.06621398
  949241.92571802  940397.1576612   931621.66892246  922915.36314165
  914278.14391121  905709.90997165  897210.55842166  888779.98391854
  880418.0786809   872124.73249209  863899.83270406  855743.26424204
  847654.90960966  839634.64889483  831682.35977623  823797.91753052
  815981.19504008  808232.06280163  800550.3889354   792936.03919505
  785388.87697837  777908.76265527  770495.5563194   763149.11368261
  755869.28884033  748655.93359651  741508.89747884  734428.02775469
  727413.16944797  720464.1653567   713580.85607146  706763.07999466
  700010.67334904  693323.47021299  686701.30254963  680144.00022018
  673651.39100758  667223.300641    660859.55282109  654559.96924635
  648324.36907093  642152.57121572  636044.39096414  629999.64228675
  624018.13729699  618099.68628302  612244.09774052  606451.17840641
  600720.73329359  595052.56572663  589446.47737844  583902.26830791
  578419.73699861  572998.68039834  567638.89395987  562340.17168252
  557102.30615482  551925.08859815  546808.30844469  541751.75525562
  536755.21595231  531818.47676149  526941.32276133  522123.5379404
  517364.90525355  512665.20667374  508024.22324487  503441.73513573
  498917.52169476  494451.36150602  490043.03244594  485692.31174121
  481398.97602749  477162.80140921  472983.56352019  468861.03758529
  464794.99848293  460785.22044311  456831.47857841  452933.54674151
  449091.19906814  445304.20967352  441572.35271999  437895.4024856
  434273.13343337  430705.3202818   427191.7380792   423732.16226818
  420326.36875962  416974.13400647  413675.23507716  410429.44972979
  407236.55648672  404096.33470985  401008.56467636  397973.0273788
  394989.50571122  392057.78287502  389177.64357546  386348.87381861
  383571.26098949  380844.59393059  378168.66302051  375543.26025291
  372968.17931546  370443.21566902  367968.16662679  365542.83143353
  363167.01134468  360840.50970541  358563.13202962  356334.68607878
  354154.98193986  352023.83210383  349941.05135459  347906.45760655
  345919.8708348   343981.11392057  342090.01253366  340246.39520777
  338450.09341502  336700.94163976  334998.77745155  333343.4415773
  331734.77797251  330172.63389142  328656.85995626  327187.31022529
  325763.84225971  324386.31718937  323054.59977719  321768.55848224
  320528.06540969  319332.9968222   318183.23251566  317078.65633592
  316019.15611837  315004.6237419   314034.95518104  313110.05055638
  312229.81418317  311394.15461807  310602.9847039   309856.22161255
  309153.7868858   308495.60647413  307881.61077345  307311.73465968
  306785.91752121  306304.10328913  305866.24046523  305472.28211367
  305122.18602499  304815.91452041  304553.43461926  304334.71801735
  304159.74110102  304028.48495892  303940.93539128  303897.08291684
  303896.92277772  303940.45495352  304027.68416456  304158.61985648
  304333.27619476  304551.67205769  304813.83102696  305119.78137579
  305469.55605474  305863.19271325  306300.73353222  306782.22541946
  307307.71984573  307877.27285297  308490.94502626  309148.80146351
  309850.91174299  310597.34988866  311388.19433347  312223.52788048
  313103.43766203  314028.01509683  314997.35584516  316011.55976213
  317070.73084909  318174.97720321  319324.4109653   320519.14826593
  321759.30928576  323045.017739    324376.40149746  325753.59207934
  327176.72469924  328645.93820512  330161.37501391  331723.18104582
  333331.50565745  334986.50157379  336688.32481902  338437.13464635
  340233.09346684  342076.3667773   343967.12308734  345905.53384557
  347891.7733651   349926.01874834  352008.45000445  354139.24920409
  356318.60154909  358546.69453504  360823.71806141  363149.86435071
  365525.32787811  367950.30528913  370424.99532003  372949.5987188
  375524.31816592  378149.35819519  380824.92511443  383551.22692639
  386328.4732496   389156.87523949  392036.64550958  394967.99805301
  397951.14816427  400986.31264213  404073.70859329  407213.55502621
  410406.07166504  413651.4791495   416949.99895903  420301.85333751
  423707.26521854  427166.45815135  430679.65622725  434247.08400313
  437868.96642115  441545.52876399  445276.99657176  449063.59557022
  452905.55160148  456803.09055545  460756.4383022   464765.82099552
  468831.46353009  472953.59168372  477132.43058655  481368.20502298
  485661.13936907  490011.45753099  494419.38288429  498885.13821418
  503408.94565673  507991.02664104  512631.60183237  517330.89107629
  522089.11334377  526906.48667732  531783.22813805  536719.55375387
  541715.67846424  546771.81606187  551888.17964309  557064.97966474
  562302.42671281  567600.72958436  572960.09570956  578380.731108
  583862.84034604  589406.62649518  595012.29109137  600680.03409539
  606410.05385419  612202.54706321  618057.70872972  623975.73213709
  629956.80881013  636001.12848127  642108.87905783  648280.24659013
  654515.41581575  660814.56783506  667177.88351515  673605.54117902
  680097.71714759  686654.58571348  693276.31911563  699963.08751488
  706715.05897034  713532.39941811  720415.27266732  727363.84034526
  734378.261884    741458.69450817  748605.2932165   755818.21076426
  763097.59764643  770443.6020818   777856.36999769  785336.04570509
  792882.76913337  800496.67993563  808177.91473729  815926.60780802
  823742.89105107  831626.89399341  839578.74377647  847598.56514768
  855686.48045258  863842.6096277   872067.07019409  880359.97725139
  888721.44347274  897151.57910009  905650.49194032  914218.28736182
  922855.06829177  931560.936016    940335.9869755   949180.31756191
  958094.02092502  967077.18776472  976129.9063347   985252.26244346
  994444.33945589 1003706.21829534 1013037.97744619 1022439.69295681
 1031911.43844314 1041453.2850926  1051065.30166853 1060747.55451502
 1070500.1075622  1080323.02233192 1090216.35794392 1100180.17112227
 1110214.51712636 1120319.44606853 1130495.0084465  1140741.25147465
 1151058.22001007 1161445.95656117 1171904.50129685 1182433.89205584
 1193034.16435647 1203705.35140666 1214447.4841143  1225260.59109787
 1236144.69870043 1247099.83100399 1258126.0098253  1269223.25473601
 1280391.58307541 1291631.00996264 1302941.54935047 1314323.20987987
 1325776.00112041 1337299.92943842 1348894.99904502 1360561.21200979
 1372298.56827457 1384107.06566745 1395986.69991706 1407937.46466687
 1419959.35148975 1432052.34990271 1444216.44738172 1456451.62937677
 1468757.87932698 1481135.17867591 1493583.50688693 1506102.84145884
 1518693.15794141 1531354.43111634 1544086.63035914 1556889.72662621
 1569763.68782998 1582708.48001582 1595724.06739791 1608810.4123371
 1621967.47536665 1635195.21521499 1648493.58882221 1661862.55135646
 1675302.05623064 1688812.05511888 1702392.4979733  1716043.33304069
 1729764.50687921 1743555.96437523 1757417.64876008 1771349.50290858
 1785351.4642357  1799423.47238404 1813565.46413342 1827777.37469301
 1842059.13771817 1856410.68532746 1870831.94811944 1885322.85518962
 1899883.33414735 1914513.31113268 1929212.71083322 1943981.45650103
 1958819.46996936 1973726.67166951 1988702.98064758 2003748.3145812
 2018862.5897962  2034045.72128335 2049297.62411763 2064618.20787025
 2080007.38502723 2095465.06541074 2110991.1575847  2126585.56887669
 2142248.20539431 2157978.97204139 2173777.77253417 2189644.50941748
 2205579.08408081 2221581.39677427 2237651.34662456 2253788.83165087
 2269993.74878065 2286265.99386536 2302605.46169613 2319012.04601936
 2335485.64106695 2352026.13551893 2368633.42158884 2385307.38899847
 2402047.92650165 2418854.92189936 2435728.2620548  2452667.83290826
 2469673.51949205 2486745.20594523 2503882.77552832 2521086.11063789
 2538355.09282106 2555689.60278989 2573089.52043576 2590554.72484354
 2608085.09430577 2625680.50633667 2643340.83768406 2661065.96596556
 2678855.76318943 2696710.10551945 2714628.86678659 2732611.92012605
 2750659.13799047 2768770.39216334 2786945.55377196 2805184.49330059
 2823487.08060329 2841853.1849168  2860282.67487322 2878775.4185126
 2897331.28329548 2915950.13611529 2934631.84331059 2953376.27067731
 2972183.28348082 2991052.74820228 3009984.52561867 3028978.48120378
 3048034.47821943 3067152.37945571 3086332.04724246 3105573.34346059
 3124876.12955335 3144240.26653746 3163665.61501416 3183152.03518017
 3202699.38683848 3222307.52940915 3241976.3219399  3261705.62311669
 3281495.29127401 3301345.18439131 3321255.16012143 3341225.07580671
 3361254.79032019 3381344.15671803 3401493.03327742 3421701.27615978
 3441968.74125567 3462295.28419435 3482680.76035322 3503125.02486715
 3523627.93263777 3544189.33834256 3564809.09644394 3585487.06119819
 3606223.08666432 3627017.0267128  3647868.73503423 3668778.06514789
 3689744.87041017 3710769.004023   3731850.32097915 3752988.67032724
 3774183.90678674 3795435.88302328 3816744.45158835 3838109.46492711
 3859530.7753861  3881008.23522086 3902541.69660343 3924131.01162976
 3945776.0323271  3967476.61066119 3989232.59854347 4011043.84783832
 4032910.2103704  4054831.53793031 4076807.68228194 4098838.49516934
 4120923.82832331 4143063.53550206 4165257.46436619 4187505.46867482
 4209807.40017039 4232163.11061398 4254572.45179148 4277035.27551957
 4299551.43365176 4322120.77808425 4344743.16076173 4367418.43368311
 4390146.44890721 4412927.05855829 4435760.11483156 4458645.46999863
 4481582.97641279 4504572.48651438 4527613.85283589 4550706.93012858
 4573851.56688643 4597047.61806568 4620294.93661807 4643593.37561243
 4666942.78823945 4690343.02781632 4713793.94779141 4737295.40174879
 4760847.24341275 4784449.32665217 4808101.50548496 4831803.63408222
 4855555.5667726  4879357.15804635 4903208.26255948 4927108.73513775
 4951058.43077262 4975057.20462052 4999104.91424872 5023201.41078888
 5047346.55217996 5071540.19434945 5095782.19342145 5120072.40572021
 5144410.68777352 5168796.89631618 5193230.88829328 5217712.52086349
 5242241.65140234 5266818.13750525 5291441.83699076 5316112.60790351
 5340830.30851724 5365594.79733775 5390405.93310573 5415263.57479966
 5440167.58392592 5465117.81537619 5490114.13114177 5515156.39117934
 5540244.45569671 5565378.18515532 5590557.44027269 5615782.08202486
 5641051.97164879 5666366.97064466 5691726.94077813 5717131.74408266
 5742581.2428616  5768075.2996904  5793613.7774187  5819196.53917239
 5844823.44835565 5870494.36865287 5896209.16403064 5921967.70110534
 5947769.83968618 5973615.44695505 5999504.38801661 6025436.52827522
 6051411.7334287  6077429.86946978 6103490.80268771 6129594.39966985
 6155740.52730328 6181929.05277628 6208159.84357988 6234432.76750928
 6260747.69266527 6287104.48745566 6313503.0205966  6339943.16111386
 6366424.77834418 6392947.74437223 6419511.92429266 6446117.19081432
 6472763.41452985 6499450.46634877 6526178.2174985  6552946.53952543
 6579755.30429599 6606604.38399757 6633493.65113949 6660422.97855398
 6687392.239397   6714401.30714915 6741450.05561649 6768538.35893136
 6795666.09155311 6822833.12826896 6850039.34419456 6877284.61477479
 6904568.8182899  6931891.82583774 6959253.51635657 6986653.76661445
 7014092.45371166 7041569.45508128 7069084.64849507 7096637.91206272
 7124229.12421861 7151858.16373136 7179524.90970436 7207229.24157621
 7234971.03912097 7262750.18244862 7290566.55200522 7318420.02857337
 7346310.49327232 7374237.8275583  7402201.9157925  7430202.63497356
 7458239.87013427 7486313.50408077 7514423.41995711 7542569.50124532
 7570751.6317656  7598969.69567636 7627223.57747431 7655513.1619945 ]
t =  [1.04110901e+09 1.04110902e+09 1.04110902e+09 1.04110902e+09
 1.04110902e+09 1.04110902e+09 1.04110902e+09 1.04110902e+09
 1.04110902e+09 1.04110903e+09 1.04110903e+09 1.04110903e+09
 1.04110903e+09 1.04110903e+09 1.04110903e+09 1.04110903e+09
 1.04110903e+09 1.04110904e+09 1.04110904e+09 1.04110904e+09
 1.04110904e+09 1.04110904e+09 1.04110904e+09 1.04110904e+09
 1.04110905e+09 1.04110905e+09 1.04110905e+09 1.04110905e+09
 1.04110905e+09 1.04110905e+09 1.04110905e+09 1.04110905e+09
 1.04110906e+09 1.04110906e+09 1.04110906e+09 1.04110906e+09
 1.04110906e+09 1.04110906e+09 1.04110906e+09 1.04110906e+09
 1.04110907e+09 1.04110907e+09 1.04110907e+09 1.04110907e+09
 1.04110907e+09 1.04110907e+09 1.04110907e+09 1.04110908e+09
 1.04110908e+09 1.04110908e+09 1.04110908e+09 1.04110908e+09
 1.04110908e+09 1.04110908e+09 1.04110908e+09 1.04110909e+09
 1.04110909e+09 1.04110909e+09 1.04110909e+09 1.04110909e+09
 1.04110909e+09 1.04110909e+09 1.04110909e+09 1.04110910e+09
 1.04110910e+09 1.04110910e+09 1.04110910e+09 1.04110910e+09
 1.04110910e+09 1.04110910e+09 1.04110911e+09 1.04110911e+09
 1.04110911e+09 1.04110911e+09 1.04110911e+09 1.04110911e+09
 1.04110911e+09 1.04110911e+09 1.04110912e+09 1.04110912e+09
 1.04110912e+09 1.04110912e+09 1.04110912e+09 1.04110912e+09
 1.04110912e+09 1.04110912e+09 1.04110913e+09 1.04110913e+09
 1.04110913e+09 1.04110913e+09 1.04110913e+09 1.04110913e+09
 1.04110913e+09 1.04110914e+09 1.04110914e+09 1.04110914e+09
 1.04110914e+09 1.04110914e+09 1.04110914e+09 1.04110914e+09
 1.04110914e+09 1.04110915e+09 1.04110915e+09 1.04110915e+09
 1.04110915e+09 1.04110915e+09 1.04110915e+09 1.04110915e+09
 1.04110915e+09 1.04110916e+09 1.04110916e+09 1.04110916e+09
 1.04110916e+09 1.04110916e+09 1.04110916e+09 1.04110916e+09
 1.04110916e+09 1.04110917e+09 1.04110917e+09 1.04110917e+09
 1.04110917e+09 1.04110917e+09 1.04110917e+09 1.04110917e+09
 1.04110918e+09 1.04110918e+09 1.04110918e+09 1.04110918e+09
 1.04110918e+09 1.04110918e+09 1.04110918e+09 1.04110918e+09
 1.04110919e+09 1.04110919e+09 1.04110919e+09 1.04110919e+09
 1.04110919e+09 1.04110919e+09 1.04110919e+09 1.04110919e+09
 1.04110920e+09 1.04110920e+09 1.04110920e+09 1.04110920e+09
 1.04110920e+09 1.04110920e+09 1.04110920e+09 1.04110921e+09
 1.04110921e+09 1.04110921e+09 1.04110921e+09 1.04110921e+09
 1.04110921e+09 1.04110921e+09 1.04110921e+09 1.04110922e+09
 1.04110922e+09 1.04110922e+09 1.04110922e+09 1.04110922e+09
 1.04110922e+09 1.04110922e+09 1.04110922e+09 1.04110923e+09
