name =JUICE_ROI_CAL_J_01
flyby =  ['2033 JUL 16 02:11:44', '2033 JUL 17 02:11:44']
Observation TW =  <SpiceCell dtype = 1, length = 0, size = 4400, card = 24, is_set = 1, adjust = 0, init = 1, base = 2004925611888, data = 2004925611936>
Cov(t) =  [7655968.21163925 7627678.02322442 7599423.53459605 7571204.8557509
 7543022.10736944 7514875.4001386  7486764.85540258 7458690.58453827
 7430652.70955317 7402651.34251382 7374686.60609041 7346758.61303862
 7318867.48413764 7291013.34049053 7263196.29588543 7235416.47464569
 7207673.9912465  7179968.97065451 7152301.52802133 7124671.78898905
 7097079.86940575 7069525.89557072 7042009.98401617 7014532.2591818
 6987092.8458273  6959691.86150777 6932329.4341573  6905005.68201044
 6877720.73365136 6850474.70799179 6823267.73426345 6796099.93205286
 6768971.43123655 6741882.35207311 6714832.82260516 6687822.9711878
 6660852.91908231 6633922.79776381 6607032.72915804 6580182.84537356
 6553373.26899717 6526604.13276712 6499875.55992754 6473187.68139986
 6446540.62840933 6419934.52517865 6393369.50600243 6366845.69575045
 6340363.229332   6313922.23225946 6287522.84005199 6261165.17885974
 6234849.38480665 6208575.58467567 6182343.91278942 6156154.5037605
 6130007.48531098 6103902.99505281 6077841.16132522 6051822.12229394
 6025846.00690243 5999912.95392694 5974023.09292998 5948176.56326109
 5922373.49508438 5896614.02595836 5870898.29371409 5845226.42940506
 5819598.57378315 5794014.85848566 5768475.42481217 5742980.40497609
 5717529.9408166  5692124.16511515 5666763.2202421  5641447.23953852
 5616176.36358457 5590950.73320992 5565770.48257849 5540635.75534925
 5515546.6862231  5490503.41935777 5465506.08998133 5440554.84274016
 5415649.81337944 5390791.14702358 5365978.97992439 5341213.45540718
 5316494.7170181  5291822.90174815 5267198.15586822 5242620.61684779
 5218090.43139572 5193607.737448   5169172.68213903 5144785.40385884
 5120446.05015459 5096154.75985746 5071911.67869569 5047716.95258327
 5023570.72098729 4999473.1324225  4975424.3267631  4951424.45289321
 4927473.65108059 4903572.0705587  4879719.85197291 4855917.14489053
 4832164.09031906 4808460.83597487 4784807.52971797 4761204.31306888
 4737651.33635845 4714148.74142834 4690696.67888504 4667295.290874
 4643944.72825958 4620645.13347313 4597396.65761852 4574199.44339461
 4551053.64000822 4527959.39675973 4504916.85671356 4481926.17148839
 4458987.48436764 4436100.94714084 4413266.70329007 4390484.9047548
 4367755.69519474 4345079.22460322 4322455.64301982 4299885.09433008
 4277367.73075293 4254903.69629643 4232493.14325156 4210136.21572576
 4187833.06605838 4165583.83843254 4143388.68521166 4121247.75063011
 4099161.18502994 4077129.13873325 4055151.7559984  4033229.18912003
 4011361.58234995 3989549.08793741 3967791.85009717 3946090.02098571
 3924443.74475163 3902853.17343051 3881318.45107648 3859839.72761065
 3838417.15285793 3817050.87067616 3795741.03267087 3774487.78253157
 3753291.27163871 3732151.64348264 3711069.04918731 3690043.63201231
 3669075.54279294 3648164.92452569 3627311.92581691 3606516.69508904
 3585779.37488167 3565100.11516275 3544479.05812468 3523916.3533282
 3503412.14258347 3482966.57500845 3462579.79199534 3442251.94218291
 3421983.16650885 3401773.61124727 3381623.42238909 3361532.74012001
 3341501.71171871 3321530.47683089 3301619.18212069 3281767.96663451
 3261976.97638229 3242246.34978148 3222576.23214863 3202966.76123147
 3183418.07982409 3163930.33032626 3144503.64940313 3125138.18045513
 3105834.05937239 3086591.42871377 3067410.42355077 3048291.18555651
 3029233.84893952 3010238.55444208 2991305.43536453 2972434.62974686
 2953626.27511191 2934880.50331099 2916197.45255684 2897577.25367574
 2879020.04378542 2860525.95263885 2842095.11620985 2823727.66312906
 2805423.72817665 2787183.43881096 2769006.92690602 2750894.32368285
 2732845.75474577 2714861.35166771 2696941.23875669 2679085.54624454
 2661294.39708613 2643567.92004991 2625906.23667455 2608309.47263561
 2590777.75283411 2573311.19659207 2555909.92886426 2538574.06742557
 2521303.73560769 2504099.04958207 2486960.13100043 2469887.0943737
 2452880.05961604 2435939.13952006 2419064.45066144 2402256.10868371
 2385514.22369207 2368838.91100005 2352230.27884695 2335688.44060154
 2319213.50257696 2302805.57613649 2286464.7656062  2270191.18028247
 2253984.92244274 2237846.09777932 2221774.81088423 2205771.16084517
 2189835.2515185  2173967.17978669 2158167.04721936 2142434.94843007
 2126770.98263943 2111175.24214841 2095647.82376585 2080188.81737308
 2064798.31588474 2049476.41093747 2034223.1886916  2019038.73962268
 2003923.14732821 1988876.49963744 1973898.87751889 1958990.3660891
 1944151.04362116 1929380.99245218 1914680.28809306 1900049.00869756
 1885487.23095831 1870995.02611737 1856572.46926978 1842219.62872766
 1827936.57657145 1813723.37811595 1799580.10235943 1785506.81155203
 1771503.57154231 1757570.44144825 1743707.48263466 1729914.75481961
 1716192.31229649 1702540.21274443 1688958.50715636 1675447.24982584
 1662006.48837831 1648636.27365476 1635336.64984641 1622107.66427671
 1608949.35763677 1595861.77246713 1582844.9494778  1569898.92398412
 1557023.73422012 1544219.411836   1531485.99131627 1518823.50058122
 1506231.9703014  1493711.42460316 1481261.89027933 1468883.38759904
 1456575.93829049 1444339.56207525 1432174.27331983 1420080.08884964
 1408057.01901973 1396105.07656181 1384224.26775958 1372414.60119182
 1360676.07901222 1349008.70452315 1337412.47888714 1325887.39795573
 1314433.45967445 1303050.65562412 1291738.97940041 1280498.41825981
 1269328.96139538 1258230.59169116 1247203.29389593 1236247.04646315
 1225361.82863446 1214547.61736906 1203804.38438992 1193132.10308999
 1182530.74064911 1172000.26584354 1161540.64126745 1151151.83103914
 1140833.79312702 1130586.48695262 1120409.86582103 1110303.88349844
 1100268.49135896 1090303.63564814 1080409.26389347 1070585.31759531
 1060831.73947018 1051148.46624566 1041535.43580135 1031992.58006769
 1022519.83206472 1013117.11890463 1003784.36787697  994521.50381296
  985328.4465655   976205.11692918  967151.42990144  958167.30136575
  949252.64145739  940407.36114397  931631.36569204  922924.56114896
  914286.84791273  905718.1263313   897218.29428324  888787.24487271
  880424.87186625  872131.06351818  863905.70870213  855748.69083826
  847659.89392566  839639.19657107  831686.47792248  823801.61179907
  815984.47181353  808234.92916745  800552.85055892  792938.10314576
  785390.54892704  777910.05033418  770496.46471256  763149.64981579
  755869.45838694  748655.74355642  741508.35352254  734427.13620782
  727411.93726634  720462.59820097  713578.96085493  706760.86233141
  700008.14010156  693320.62700535  686698.15621984  680140.55638155
  673647.65587086  667219.28099012  660855.25424918  654555.39849849
  648319.53229292  642147.47453611  636039.03994001  629994.04357748
  624012.2964371   618093.60988453  612237.79131206  606444.64798164
  600713.98540735  595045.6058423   589439.31197524  583894.90281468
  578412.17783564  572990.93295653  567630.96459738  562332.06574904
  557094.02994341  551916.64741434  546799.70851462  541743.00229754
  536746.31519884  531809.43430617  526932.14375735  522114.2284077
  517355.47030334  512655.65226347  508014.55444605  503431.95784554
  498907.6409468   494441.38273252  490032.96145672  485682.15351521
  481388.73631747  477152.48515825  472973.1764242   468850.58455125
  464784.48514953  460774.65204579  456820.86032725  452922.88346839
  449080.49594478  445293.47219068  441561.58564891  437884.61125489
  434262.32277125  430694.49555264  427180.90396833  423721.32407702
  420315.531126    416963.30216179  413664.41360802  410418.64350122
  407225.77062252  404085.57371761  400997.83360765  397962.33096456
  394978.84865051  392047.16957084  389167.07893786  386338.36220066
  383560.80723385  380834.20234329  378158.33813749  375533.00682238
  372958.00158007  370433.11831969  367958.15386975  365532.90790763
  363157.18122509  360830.77758463  358553.50205837  356325.1628204
  354145.56953907  352014.53489915  349931.87405042  347897.4041328
  345910.94567758  343972.32119301  342081.35669579  340237.88036569
  338441.72400574  336692.72176515  334990.71137472  333335.533706
  331727.03240709  330165.05502333  328649.4518878   327180.07733393
  325756.78865185  324379.44723078  323047.91758048  321762.06840363
  320521.77168183  319326.9035707   318177.34408662  317072.97686678
  316013.68995145  314999.37502871  314029.92826284  313105.24960159
  312225.24353518  311389.81846556  310598.88739615  309852.36736259
  309150.17999106  308492.25130157  307878.51158232  307308.89583621
  306783.34336368  306301.79821057  305864.20881127  305470.52836755
  305120.71455167  304814.7298163   304552.54115734  304334.12033692
  304159.44379581  304028.49263551  303941.25273002  303897.71463717
  303897.87364617  303941.72966523  304029.2874304   304160.55644681
  304335.55089889  304554.28973967  304816.79657912  305123.09970252
  305473.23215844  305867.23153584  306305.14020174  306787.00499132
  307312.87750531  307882.8137311   308496.87440004  309155.12453956
  309857.63389069  310604.47646152  311395.73065308  312231.47945623
  313111.80989329  314036.81358761  315006.58607366  316021.22742816
  317080.8415108   318185.53665739  319335.4248512   320530.62247855
  321771.24954633  323057.42992212  324389.29164751  325766.96604285
  327190.58862141  328660.29801688  330176.23696208  331738.55114629
  333347.39025923  335002.90677809  336705.25707731  338454.60030758
  340251.0987602   342094.9183079   343986.22716919  345925.19718566
  347912.00236152  349946.82020913  352029.83021726  354161.21526568
  356341.16022368  358569.85242495  360847.4822232   363174.24147494
  365550.32512416  367975.92942173  370451.25358796  372976.49795607
  375551.86570694  378177.56093943  380853.79047844  383580.76212378
  386358.68527172  389187.77162037  392068.23329814  395000.2848584
  397984.14109054  401020.0190906   404108.13599723  407248.71113917
  410441.96369563  413688.11492131  416987.38603531  420339.99900146
  423746.17739669  427206.1441751   430720.12409039  434288.34109153
  437911.02082757  441588.38794562  445320.66868345  449108.08810526
  452950.87276727  456849.24823361  460803.44002635  464813.67466821
  468880.17706837  473003.17339604  477182.88803629  481419.546548
  485713.37253861  490064.59070709  494473.42363699  498940.09492525
  503464.8263099   508047.83879996  512689.35390185  517389.59061186
  522148.76876249  526967.10552447  531844.81884135  536782.12384693
  541779.23639294  546836.36938104  551953.73636349  557131.54827446
  562370.01474817  567669.34553754  573029.74709686  578451.42642129
  583934.58707628  589479.4331287   595086.16508837  600754.98393144
  606486.08695335  612279.67188508  618135.93319626  624055.06360838
  630037.25571249  636082.69812586  642191.57984284  648364.0857731
  654600.40118722  660900.70716375  667265.18513003  673694.01221748
  680187.36589816  686745.41985141  693368.34567837  700056.31472408
  706809.49379276  713628.05002579  720512.14594151  727461.94441649
  734477.60357965  741559.28190864  748707.13372974  755921.31110071
  763201.96580361  770549.24468816  777963.29499157  785444.25894032
  792992.27916925  800607.49322695  808290.03909457  816040.04959429
  823857.65800817  831742.99311468  839696.18128117  847717.34866863
  855806.61610907  863964.10497594  872189.93125016  880484.21149174
  888847.0568071   897278.57892212  905778.88405031  914348.0790677
  922986.26607581  931693.5447068   940470.01454287  949315.76951669
  958230.904341    967215.50802598  976269.67041781  985393.47561309
  994587.00859458 1003850.34854773 1013183.57559992 1022586.7649001
 1032059.98913888 1041603.32118442 1051216.82799688 1060900.57762623
 1070654.63217308 1080479.05489027 1090373.90304158 1100339.23510708
 1110375.10353958 1120481.56207399 1130658.65931653 1140906.44148134
 1151224.95524378 1161614.2411626  1172074.3412498  1182605.29136734
 1193207.12890144 1203879.88505602 1214623.59263161 1225438.27821542
 1236323.97006478 1247280.69120067 1258308.4623592  1269407.30505637
 1280577.23453174 1291818.26788559 1303130.41590537 1314513.69131533
 1325968.10050051 1337493.65186108 1349090.34743252 1360758.19134459
 1372497.18241614 1384307.31732634 1396188.5939034  1408141.00355048
 1420164.53996622 1432259.19040128 1444424.94448342 1456661.78537013
 1468969.69867819 1481348.66466948 1493798.66159951 1506319.66918325
 1518911.66061207 1531574.61174424 1544308.49189395 1557113.27312604
 1569988.92094126 1582935.40367506 1595952.68307913 1609040.72382425
 1622199.48518696 1635428.92461523 1648729.0014056  1662099.66822283
 1675540.88086248 1689052.58847008 1702634.74340696 1716287.29136617
 1730010.18134155 1743803.35564064 1757666.75995688 1771600.33455895
 1785604.01806876 1799677.75135526 1813821.46855661 1828035.10740964
 1842318.59890289 1856671.87770852 1871094.87173299 1885587.51265127
 1900149.72535522 1914781.43858999 1929482.57565001 1944253.0583687
 1959092.81122251 1974001.75186156 1988979.80200028 2004026.87650956
 2019142.89440858 2034327.76785573 2049581.41324141 2064903.74007249
 2080294.66216987 2095754.08788543 2111281.92429356 2126878.08150255
 2142542.46269952 2158274.97559468 2174075.52095952 2189944.00417091
 2205880.3236494  2221884.38250277 2237956.07686471 2254095.30763763
 2270301.97021949 2286575.95890792 2302917.1714155  2319325.49843576
 2335800.83563268 2352343.07163295 2368952.10011361 2385627.80769601
 2402370.08613125 2419178.82009619 2436053.89947632 2452995.20861894
 2470002.63093937 2487076.05363643 2504215.35678749 2521420.42587361
 2538691.13923528 2556027.3806928  2573429.02689822 2590895.9600681
 2608428.05524212 2626025.19309365 2643687.24871771 2661414.0964356
 2679205.61470636 2697061.67475993 2714982.15364732 2732966.92117008
 2751015.85302484 2769128.81763813 2787305.68940494 2805546.33710302
 2823850.62885671 2842218.43720564 2860649.62736703 2879144.07070721
 2897701.63124873 2916322.17923452 2935005.57754213 2953751.69534014
 2972560.39440994 2991431.54289401 3010365.00326266 3029360.63746852
 3048418.31220351 3067537.88671699 3086719.22679178 3105962.19074563
 3125266.64349492 3144632.44246588 3164059.45175808 3183547.52796072
 3203096.53439856 3222706.32866175 3242376.76794644 3262107.71449549
 3281899.02298322 3301750.55498366 3321662.16447873 3341633.71241462
 3361665.05212165 3381756.04395832 3401906.54064334 3422116.40198696
 3442385.48199463 3462713.63438917 3483100.71823045 3503546.5848777
 3524051.0929374  3544614.0932907  3565235.44412722 3585914.99588643
 3606652.60637681 3627448.12563172 3648301.41111346 3669212.31440194
 3690180.68689361 3711206.38559531 3732289.25967675 3753429.16590548
 3774625.95317072 3795879.47798711 3817189.5889786  3838556.14245979
 3859978.98682865 3881457.97823042 3902992.96684262 3924583.80274606
 3946230.34188794 3967932.43223334 3989689.92963379 4011502.68193223
 4033370.54491276 4055293.36632432 4077271.00191118 4099303.29935577
 4121390.11438942 4143531.29668529 4165726.69589657 4187976.1677842
 4210279.55998006 4232636.72829653 4255047.52038984 4277511.7921484
 4300029.3912773  4322600.17376494 4345223.98738911 4367900.68826151
 4390630.12634009 4413412.15162966 4436246.62046913 4459133.38091816
 4482072.28949446 4505063.19440881 4528105.95237877 4551200.41178725
 4574346.42957448 4597543.85647668 4620792.54330158 4644092.34735376
 4667443.11753259 4690844.71140986 4714296.97812412 4737799.77553274
 4761352.95303178 4784956.36878205 4808609.8724549  4832313.32253192
 4856066.57115498 4879869.47060944 4903721.87988939 4927623.64942892
 4951574.63858396 4975574.69812217 4999623.68777686 5023721.45866476
 5047867.87091164 5072062.77599833 5096306.03445761 5120597.50037613
 5144937.02802635 5169324.47857787 5193759.70448441 5218242.56735697
 5242772.92006223 5267350.62466553 5291975.53445943 5316647.51197607
 5341366.41094635 5366132.09438127 5390944.41873689 5415803.24069026
 5440708.42399224 5465659.82352122 5490657.30353683 5515700.71941809
 5540789.93594685 5565924.80896828 5591105.20378421 5616330.9767379
 5641601.99366744 5666918.11374478 5692279.19639105 5717685.10826616
 5743135.70700035 5768630.8598125  5794170.42486339 5819754.26993933
 5845382.2537401  5871054.24462751 5896770.10184851 5922529.69434824
 5948332.88429398 5974179.53412536 6000069.51367629 6026002.683595
 6051978.91431669 6077998.06706264 6104060.01287595 6130164.61355763
 6156311.74076502 6182501.25688522 6208733.03419585 6235006.93808461
 6261322.83422974 6287680.59584993 6314080.08682337 6340521.18100279
 6367003.74287242 6393527.64692402 6420092.75825294 6446698.95199468
 6473346.09386091 6500034.05964042 6526762.71811641 6553531.93837491
 6580341.59717968 6607191.56180054 6634081.70965913 6661011.90865547
 6687982.03687261 6714991.96284433 6742041.5653184  6769130.71594876
 6796259.28670187 6823427.15732818 6850634.1979601  6877880.28902002
 6905165.30128487 6932489.11585145 6959851.60414383 6987252.6479355
 7014692.11930002 7042169.90068969 7069685.86735177 7097239.89485315
 7124831.8666678  7152461.6565021  7180129.14851322 7207834.21706382
 7235576.74699566 7263356.61332916 7291173.70159197 7319027.88746359
 7346919.05715861 7374847.08957658 7402811.86394076 7430813.26749781
 7458851.17757976 7486925.48212223 7515036.0591191  7543182.79718935
 7571365.57498893 7599584.28183259 7627838.79704151 7656129.01062065]
t =  [1.05840732e+09 1.05840733e+09 1.05840733e+09 1.05840733e+09
 1.05840733e+09 1.05840733e+09 1.05840733e+09 1.05840733e+09
 1.05840733e+09 1.05840734e+09 1.05840734e+09 1.05840734e+09
 1.05840734e+09 1.05840734e+09 1.05840734e+09 1.05840734e+09
 1.05840734e+09 1.05840735e+09 1.05840735e+09 1.05840735e+09
 1.05840735e+09 1.05840735e+09 1.05840735e+09 1.05840735e+09
 1.05840736e+09 1.05840736e+09 1.05840736e+09 1.05840736e+09
 1.05840736e+09 1.05840736e+09 1.05840736e+09 1.05840736e+09
 1.05840737e+09 1.05840737e+09 1.05840737e+09 1.05840737e+09
 1.05840737e+09 1.05840737e+09 1.05840737e+09 1.05840737e+09
 1.05840738e+09 1.05840738e+09 1.05840738e+09 1.05840738e+09
 1.05840738e+09 1.05840738e+09 1.05840738e+09 1.05840738e+09
 1.05840739e+09 1.05840739e+09 1.05840739e+09 1.05840739e+09
 1.05840739e+09 1.05840739e+09 1.05840739e+09 1.05840740e+09
 1.05840740e+09 1.05840740e+09 1.05840740e+09 1.05840740e+09
 1.05840740e+09 1.05840740e+09 1.05840740e+09 1.05840741e+09
 1.05840741e+09 1.05840741e+09 1.05840741e+09 1.05840741e+09
 1.05840741e+09 1.05840741e+09 1.05840741e+09 1.05840742e+09
 1.05840742e+09 1.05840742e+09 1.05840742e+09 1.05840742e+09
 1.05840742e+09 1.05840742e+09 1.05840743e+09 1.05840743e+09
 1.05840743e+09 1.05840743e+09 1.05840743e+09 1.05840743e+09
 1.05840743e+09 1.05840743e+09 1.05840744e+09 1.05840744e+09
 1.05840744e+09 1.05840744e+09 1.05840744e+09 1.05840744e+09
 1.05840744e+09 1.05840744e+09 1.05840745e+09 1.05840745e+09
 1.05840745e+09 1.05840745e+09 1.05840745e+09 1.05840745e+09
 1.05840745e+09 1.05840746e+09 1.05840746e+09 1.05840746e+09
 1.05840746e+09 1.05840746e+09 1.05840746e+09 1.05840746e+09
 1.05840746e+09 1.05840747e+09 1.05840747e+09 1.05840747e+09
 1.05840747e+09 1.05840747e+09 1.05840747e+09 1.05840747e+09
 1.05840747e+09 1.05840748e+09 1.05840748e+09 1.05840748e+09
 1.05840748e+09 1.05840748e+09 1.05840748e+09 1.05840748e+09
 1.05840749e+09 1.05840749e+09 1.05840749e+09 1.05840749e+09
 1.05840749e+09 1.05840749e+09 1.05840749e+09 1.05840749e+09
 1.05840750e+09 1.05840750e+09 1.05840750e+09 1.05840750e+09
 1.05840750e+09 1.05840750e+09 1.05840750e+09 1.05840750e+09
 1.05840751e+09 1.05840751e+09 1.05840751e+09 1.05840751e+09
 1.05840751e+09 1.05840751e+09 1.05840751e+09 1.05840752e+09
 1.05840752e+09 1.05840752e+09 1.05840752e+09 1.05840752e+09
 1.05840752e+09 1.05840752e+09 1.05840752e+09 1.05840753e+09
 1.05840753e+09 1.05840753e+09 1.05840753e+09 1.05840753e+09
 1.05840753e+09 1.05840753e+09 1.05840753e+09 1.05840754e+09
