name =JUICE_ROI_CAL_J_01
flyby =  ['2033 MAR 04 14:44:09', '2033 MAR 05 14:44:09']
Observation TW =  <SpiceCell dtype = 1, length = 0, size = 4400, card = 24, is_set = 1, adjust = 0, init = 1, base = 2004925611888, data = 2004925611936>
Cov(t) =  [7655748.03596794 7627458.59935479 7599204.85829581 7570986.93313845
 7542804.93679493 7514658.9851082  7486549.19168368 7458475.67819579
 7430438.55892298 7402437.95106079 7374473.96958017 7346546.73748038
 7318656.37040415 7290802.98689722 7262986.70329354 7235207.64391382
 7207465.92576188 7179761.66873002 7152094.99051134 7124466.0167433
 7096874.86578631 7069321.65887422 7041806.51505403 7014329.56127391
 6986890.91724493 6959490.70553598 6932129.04654137 6904806.06851236
 6877521.89250329 6850276.64240949 6823070.43996368 6795903.41471103
 6768775.68904012 6741687.38568235 6714638.63514644 6687629.56081484
 6660660.2888818  6633730.94339959 6606841.65615099 6579992.55183294
 6553183.75793636 6526415.39982148 6499687.61053119 6473000.51606309
 6446354.24519022 6419748.92456597 6393184.68847742 6366661.66420704
 6340179.98179344 6313739.76916634 6287341.16183909 6260984.2883611
 6234669.28001796 6208396.26599672 6182165.38301688 6155976.76087476
 6129830.53208207 6103726.82706196 6077665.78371778 6051647.5330703
 6025672.20883422 5999739.94264527 5973850.87356583 5948005.13381639
 5922202.85592518 5896444.17980611 5870729.23856171 5845058.16794879
 5819431.10166088 5793848.1807278  5768309.53942285 5742815.31462976
 5717365.64117524 5691960.66115875 5666600.50994894 5641285.32551997
 5616015.24379857 5590790.40792609 5565610.95435365 5540477.02211226
 5515388.74819304 5490346.27674224 5465349.74525626 5440399.293785
 5415495.06034534 5390637.19004853 5365825.82139617 5341061.09541595
 5316343.15110891 5291672.13450821 5267048.1850774  5242471.44252636
 5217942.05354943 5193460.15830125 5169025.8994121  5144639.41749518
 5120300.86008331 5096010.36820924 5071768.08535099 5047574.15297404
 5023428.71939707 4999331.92647803 4975283.91848859 4951284.83769166
 4927334.83313537 4903434.04744602 4879582.62563097 4855780.71069171
 4832028.45234537 4808325.99392714 4784673.48113714 4761071.05765886
 4737518.8738137  4714017.07357745 4690565.80323721 4667165.20707715
 4643815.43595207 4620516.63440875 4597268.94926865 4574072.52535062
 4550927.51396923 4527834.06016819 4504792.30911754 4481802.41242568
 4458864.51545771 4435978.76578609 4413145.30897904 4390364.29696512
 4367635.87546586 4344960.19236979 4322337.39355895 4299767.63119586
 4277251.05127175 4254787.80190305 4232378.02919648 4210021.88545752
 4187719.51685545 4165471.07164158 4143276.6960532  4121136.54244269
 4099050.75706085 4077019.48819569 4055042.88211589 4033121.09111965
 4011254.26143741 3989442.54129063 3967686.07687494 3945985.02032794
 3924339.51775265 3902749.71719525 3881215.7646503  3859737.81196615
 3838316.00500837 3816950.48958031 3795641.41726955 3774388.93368587
 3753193.18629498 3732054.32051337 3710972.48744832 3689947.83226016
 3668980.50191252 3648070.64130859 3627218.40094672 3606423.92540825
 3585687.36102346 3565008.85204965 3544388.54824144 3523826.59346545
 3503323.13328116 3482878.31116114 3462492.27597524 3442165.17073347
 3421897.1400807  3401688.32655971 3381538.87800828 3361448.9364315
 3341418.64540967 3321448.14640432 3301537.58606749 3281687.10524482
 3261896.84629558 3242166.94944228 3222497.55999122 3202888.81746759
 3183340.86105843 3163853.83495905 3144427.87759501 3125063.12879207
 3105759.72620419 3086517.81237697 3067337.52411663 3048218.99956448
 3029162.37466832 3010167.79015486 2991235.3810341  2972365.2835829
 2953557.63186145 2934812.56459389 2916130.21480928 2897510.71673348
 2878954.20235103 2860460.80819327 2842030.66511698 2823663.90510381
 2805360.65786804 2787121.05755127 2768945.23264003 2750833.31267194
 2732785.42488968 2714801.70084159 2696882.26643929 2679027.2485699
 2661236.77179655 2643510.96486412 2625849.9508981  2608253.85231155
 2590722.79560488 2573256.90167143 2555856.29224324 2538521.08667636
 2521251.40828673 2504047.37479619 2486909.10468462 2469836.71402055
 2452830.32270237 2435890.0450511  2419015.99606351 2402208.28829074
 2385467.03798199 2368792.35582259 2352184.35308971 2335643.13857933
 2319168.82465182 2302761.51811628 2286421.32628818 2270148.35396514
 2253942.70937359 2237804.49520056 2221733.81455254 2205730.76798031
 2189795.45932635 2173927.98690474 2158128.44936086 2142396.94274553
 2126733.56626256 2111138.41359776 2095611.57725827 2080153.15279925
 2064763.23026529 2049441.89987513 2034189.24918297 2019005.36864995
 2003890.34323618 1988844.25798659 1973867.19525004 1958959.24012978
 1944120.47223495 1929350.97116552 1914650.81377435 1900020.07953579
 1885458.8424414  1870967.17638123 1856545.15245666 1842192.84424686
 1827910.31985752 1813697.64720001 1799554.89135538 1785482.11973828
 1771479.39429931 1757546.77670181 1743684.32573717 1729892.10238589
 1716170.16217425 1702518.55899978 1688937.34884079 1675426.58222904
 1661986.30924654 1648616.57703116 1635317.43465725 1622088.92576348
 1608931.09344643 1595843.9778182  1582827.62078344 1569882.05882298
 1557007.32778398 1544203.46048965 1531470.49141265 1518808.44961485
 1506217.3634456  1493697.25819212 1481248.16063534 1468870.09215936
 1456563.07333446 1444327.12163161 1432162.25588852 1420068.48956264
 1408045.83521045 1396094.3022547  1384213.9013466  1372404.63777599
 1360666.51584683 1348999.53669729 1337403.70255825 1325879.01032059
 1314425.45476022 1303043.03164574 1291731.73142384 1280491.54341349
 1269322.45371866 1258224.44930559 1247197.51184555 1236241.6218056
 1225356.75641436 1214542.89363604 1203800.00617049 1193128.06544079
 1182527.03961768 1171996.89749044 1161537.60260745 1151149.11717128
 1140831.40011124 1130584.41085159 1120408.10362616 1110302.43126031
 1100267.34329627 1090302.78965925 1080408.71512887 1070585.06301891
 1060831.77335594 1051148.78644358 1041536.03749053 1031993.46018859
 1022520.98494443 1013118.54234264 1003786.05792991  994523.45484567
  985330.65633764  976207.58066297  967154.14448935  958170.26121983
  949255.84428001  940410.80217439  931635.04178729  922928.46676074
  914290.98068277  905722.48229969  897222.86871328  888792.03381351
  880429.87136749  872136.27038455  863911.11821881  855754.29905277
  847665.69688801  839645.19106357  831692.6592604   823807.97603771
  815991.01572646  808241.64810015  800559.74128211  792945.16033431
  785397.77005464  777917.43079912  770504.00129299  763157.33727172
  755877.2941831   748663.72315981  741516.47308294  734435.39253664
  727420.32589274  720471.11595584  713587.60269517  706769.62578243
  700017.02082762  693329.6219433   686707.26049631  680149.76756538
  673656.97032496  667228.69450465  660864.76322372  654564.9993457
  648329.22200447  642157.2489724   636048.89554578  630003.97680942
  624022.30430712  618103.68831971  612247.93680095  606454.85755336
  600724.25504138  595055.93258077  589449.69132426  583905.33234986
  578422.65361533  573001.45205975  567641.52263874  562342.66032638
  557104.65720916  551927.30402921  546810.39162808  541753.70814413
  536757.04096546  531820.17587534  526942.89885805  522124.99344203
  517366.24257723  512666.42780326  508025.33102059  503442.73195878
  498918.40996045  494452.14319665  490043.71035644  485692.88824755
  481399.45349856  477163.18182066  472983.84961676  468861.23171258
  464795.1029781   460785.23763486  456831.41078582  452933.39627458
  449090.96822725  445303.90040442  441571.96765281  437894.94389036
  434272.60323992  430704.72107322  427191.07208949  423731.43172017
  420325.57555618  416973.28066496  413674.32379033  410428.48268052
  407235.53555782  404095.26236003  401007.44305957  397971.85891565
  394988.29198462  392056.52628657  389176.3462415   386347.53784614
  383569.88822392  380843.18671747  378167.22343916  375541.79037343
  372966.68096502  370441.6911379   367966.61795779  365541.26066042
  363165.42027672  360838.9005787   358561.50685009  356333.04683205
  354153.33040355  352022.17044861  349939.38173207  347904.78159653
  345918.190579    343979.431368    342088.32963     340244.71372899
  338448.41547282  336699.26917262  334997.11239636  333341.78571999
  331733.13340142  330171.00254005  328655.24375728  327185.71097796
  325762.262032    324384.7579116   323053.06337878  321767.04677578
  320526.58055419  319331.54062767  318181.80690654  317077.2631357
  316017.7973512   315003.30132647  314033.67103377  313108.80650854
  312228.6122331   311392.99667469  310601.87267357  309855.1573327
  309152.77232848  308494.64353884  307880.70130373  307310.88061049
  306785.12078865  306303.36576956  305865.56401812  305471.66871528
  305121.63754087  304815.43285959  304553.02167584  304334.37574272
  304159.47143206  304028.28984662  303940.81679772  303897.04284049
  303896.96323401  303940.5779922   304027.89184924  304158.91423689
  304333.65933111  304552.14601672  304814.39790973  305120.44324504
  305470.31500629  305864.05081688  306301.69298507  306783.288318
  307308.88833876  307878.54910399  308492.33127205  309150.29984354
  309852.52446635  310599.07925041  311390.04250725  312225.49712186
  313105.53024201  314030.23338868  314999.70206788  316014.03623277
  317073.33989989  318177.72128491  319327.29234125  320522.16931382
  321762.47228252  323048.32532436  324379.85597892  325757.19589561
  327180.48030461  328649.84820647  330165.44176466  331727.40704824
  333335.8934304   334991.0538069   336693.04391566  338442.02317715
  340238.15402048  342081.60213214  343972.53570261  345911.12636673
  347897.54845742  349931.9792861   352014.59831621  354145.58820602
  356325.13419202  358553.42339191  360830.64593147  363156.99408296
  365532.66256517  367957.84760699  370432.74817804  372957.56504283
  375532.50113558  378157.76053213  380833.5497873   383560.07691611
  386337.55180559  389166.18511258  392046.18971319  394977.77961036
  397961.17038406  400996.57801448  404084.22044596  407224.31642043
  410417.08596718  413662.7491508   416961.52775201  420313.64402636
  423719.32123464  427178.78231488  430692.25168252  434259.95391646
  437882.11433631  441558.95758026  445290.70953478  449077.59629162
  452919.84301413  456817.67595206  460771.32098993  464781.00429507
  468846.95077574  472969.38622185  477148.53577512  481384.62462177
  485677.87637106  490028.51532417  494436.76486509  498902.84819882
  503426.98664929  508009.40205855  512650.31509723  517349.94604919
  522108.51302754  526926.23450635  531803.32754951  536740.00864248
  541736.49181675  546792.99130763  551909.7197411   557086.88899249
  562324.70823384  567623.38673642  572983.13242704  578404.15034487
  583886.64554748  589430.82110892  595036.87908459  600705.01840973
  606435.43794489  612228.3343878   618083.90328758  624002.33685565
  629983.82715235  636028.56391129  642136.73560351  648308.52715945
  654544.12329849  660843.70626445  667207.45694018  673635.55247945
  680128.16978085  686685.48313332  693307.66538152  699994.88546656
  706747.31204563  713565.11104672  720448.44688413  727397.47990739
  734412.37016822  741493.27488278  748640.34969971  755853.74605512
  763133.61508783  770480.10568481  777893.36241767  785373.52956995
  792920.74843515  800535.1586757   808216.89551188  815966.09389955
  823782.88573292  831667.40125577  839619.76615419  847640.1058857
  855728.54278586  863885.19753191  872110.18613838  880403.62443863
  888765.62509425  897196.29911145  905695.75273857  914264.09210093
  922901.42011222  931607.83804067  940383.44230766  949228.32928604
  958142.59210683  967126.32228108  976179.60639904  985302.53107377
  994495.17965402 1003757.63389938 1013089.97057925 1022492.26657163
 1031964.5963476  1041507.02934074 1051119.63516284 1060802.48014095
 1070555.62908548 1080379.14171231 1090273.0780146  1100237.49469858
 1110272.44700489 1120377.98502879 1130554.15924867 1140801.01685994
 1151118.60364962 1161506.96021433 1171966.12764568 1182496.1437619
 1193097.04503566 1203768.86270984 1214511.628644   1225325.37143487
 1236210.11839976 1247165.89159073 1258192.71379436 1269290.60455786
 1280459.58222336 1291699.65983714 1303010.85130695 1314393.16732484
 1325846.61745448 1337371.20593711 1348966.93800616 1360633.81677967
 1372371.84003549 1384181.00664394 1396061.31230946 1408012.75175068
 1420035.31432497 1432128.99061835 1444293.76808348 1456529.63327243
 1468836.56735758 1481214.55287858 1493663.56927647 1506183.59517919
 1518774.60381872 1531436.5699348  1544169.46521889 1556973.2606465
 1569847.92176176 1582793.4157574  1595809.70680151 1608896.75842782
 1622054.52874557 1635282.97765579 1648582.06207432 1661951.73837424
 1675391.95749225 1688902.67230084 1702483.83272776 1716135.38825037
 1729857.28289896 1743649.46278405 1757511.87238695 1771444.45073433
 1785447.13904165 1799519.87565209 1813662.59862132 1827875.24054086
 1842157.73633568 1856510.01810039 1870932.01773535 1885423.66166752
 1899984.87880183 1914615.59525476 1929315.73704159 1944085.22469516
 1958923.9813702  1973831.92747479 1988808.98341056 2003855.06409686
 2018970.08720832 2034153.96771236 2049406.62065931 2064727.9555984
 2080117.88498564 2095576.31861236 2111103.16644391 2126698.3329349
 2142361.72558777 2158093.25072615 2173892.80915542 2189760.30483379
 2205695.6391247  2221698.7137227  2237769.42479365 2253907.67179496
 2270113.35162807 2286386.3616137  2302726.59353287 2319133.94259526
 2335608.30149242 2352149.56342207 2368757.61603043 2385432.35052789
 2402173.65564345 2418981.42069771 2435855.52944724 2452795.86934641
 2469802.32540385 2486874.78330368 2504013.12315238 2521217.22888186
 2538486.98201503 2555822.26483512 2573222.95403356 2590688.93026141
 2608220.07179131 2625816.25773453 2643477.36159507 2661203.2609642
 2678993.8327206  2696848.94812338 2714768.48261327 2732752.3093069
 2750800.30229617 2768912.33003612 2787088.2652873  2805327.97851513
 2823631.34123597 2841998.21931089 2860428.48302817 2878922.00040851
 2897478.64059732 2916098.26706527 2934780.74782968 2953525.9486664
 2972333.73654793 2991203.97275151 3010136.52321824 3029131.25167241
 3048188.02310511 3067306.69679053 3086487.13678177 3105729.20493078
 3125032.76441861 3144397.67270043 3163823.79212385 3183310.98286526
 3202859.10650304 3222468.01885309 3242137.58073404 3261867.65262556
 3281658.0892264  3301508.75031949 3321419.49355126 3341390.17808198
 3361420.65726566 3381510.78964701 3401660.43165209 3421869.44128219
 3442137.67070593 3462464.97738691 3482851.21668656 3503296.24560104
 3523799.91526648 3544362.08221607 3564982.60089588 3585661.32744447
 3606398.11211202 3627192.81064569 3648045.2767192  3668955.36575475
 3689922.92725694 3710947.81632507 3732029.88599738 3753168.99111136
 3774364.98053895 3795617.70886067 3816927.02861139 3838292.79418182
 3859714.85398471 3881193.06221701 3902727.27301325 3924317.33450616
 3945963.10068123 3967664.42349095 3989421.15683129 4011233.14856397
 4033100.25249302 4055022.32039697 4076999.20604566 4099030.7571413
 4121116.82741598 4143257.26858255 4165451.93439129 4187700.67249091
 4210003.33664538 4232359.77860463 4254769.85220065 4277233.40512907
 4299750.29128432 4322320.36255091 4344943.47293844 4367619.47028491
 4390348.20870862 4413129.54032112 4435963.31940066 4458849.39401804
 4481787.61860411 4504777.84558512 4527819.92957089 4550913.71892589
 4574059.06847873 4597255.83318497 4620503.86172977 4643803.00929465
 4667153.12905901 4690554.07647748 4714005.70069705 4737507.85743583
 4761060.40040937 4784663.18564491 4808316.0628243  4832018.8882735
 4855771.51631446 4879573.80361605 4903425.60046343 4927326.76385709
 4951277.14879135 4975276.61264119 4999325.00635928 5023422.18768316
 5047568.01234109 5071762.33847469 5096005.01776414 5120295.9087425
 5144634.86792968 5169021.7542904  5193456.42028863 5217938.72530755
 5242468.52671269 5267045.68434471 5291670.05150394 5316341.48847481
 5341059.85578476 5365825.00737476 5390636.80423302 5415495.10532476
 5440399.77214153 5465350.65956529 5490347.62957274 5515390.54210775
 5540479.25966814 5565613.63810198 5590793.54041305 5616018.82756552
 5641289.36310395 5666605.00388297 5691965.61397236 5717371.05539495
 5742821.19277951 5768315.88402439 5793854.99430132 5819438.3867271
 5845065.92704908 5870737.47424366 5896452.89461745 5922212.05241366
 5948014.81452982 5973861.04105181 5999750.5994513  6025683.35750752
 6051659.17615752 6077677.92376501 6103739.46661447 6129843.67368415
 6155990.40706942 6182179.53634572 6208410.92899964 6234684.45522208
 6260999.97827815 6287357.36897904 6313756.4960376  6340197.23090318
 6366679.43806127 6393202.9895814  6419767.75542433 6446373.60830724
 6473020.41394276 6499708.04567751 6526436.37473856 6553205.27512863
 6580014.6138051  6606864.26540825 6633754.1024477  6660684.0002271
 6687653.82696419 6714663.4586073  6741712.7689627  6768801.63464848
 6795929.92515618 6823097.5177547  6850304.29005563 6877550.11251364
 6904834.8633951  6932158.41880372 6959520.65768454 6986921.45178528
 7014360.68071049 7041838.22188979 7069353.95561031 7096907.7549216
 7124499.50077411 7152129.07192778 7179796.34999255 7207501.20932024
 7235243.53221265 7263023.19877245 7290840.09199099 7318694.08754265
 7346585.0690889  7374512.9180795  7402477.51886747 7430478.74844922
 7458516.49184987 7486590.63187004 7514701.05422764 7542847.63724463
 7571030.26731231 7599248.82858454 7627503.20814612 7655793.2856466 ]
t =  [1.04687487e+09 1.04687487e+09 1.04687487e+09 1.04687487e+09
 1.04687487e+09 1.04687488e+09 1.04687488e+09 1.04687488e+09
 1.04687488e+09 1.04687488e+09 1.04687488e+09 1.04687488e+09
 1.04687488e+09 1.04687489e+09 1.04687489e+09 1.04687489e+09
 1.04687489e+09 1.04687489e+09 1.04687489e+09 1.04687489e+09
 1.04687489e+09 1.04687490e+09 1.04687490e+09 1.04687490e+09
 1.04687490e+09 1.04687490e+09 1.04687490e+09 1.04687490e+09
 1.04687491e+09 1.04687491e+09 1.04687491e+09 1.04687491e+09
 1.04687491e+09 1.04687491e+09 1.04687491e+09 1.04687491e+09
 1.04687492e+09 1.04687492e+09 1.04687492e+09 1.04687492e+09
 1.04687492e+09 1.04687492e+09 1.04687492e+09 1.04687492e+09
 1.04687493e+09 1.04687493e+09 1.04687493e+09 1.04687493e+09
 1.04687493e+09 1.04687493e+09 1.04687493e+09 1.04687494e+09
 1.04687494e+09 1.04687494e+09 1.04687494e+09 1.04687494e+09
 1.04687494e+09 1.04687494e+09 1.04687494e+09 1.04687495e+09
 1.04687495e+09 1.04687495e+09 1.04687495e+09 1.04687495e+09
 1.04687495e+09 1.04687495e+09 1.04687495e+09 1.04687496e+09
 1.04687496e+09 1.04687496e+09 1.04687496e+09 1.04687496e+09
 1.04687496e+09 1.04687496e+09 1.04687497e+09 1.04687497e+09
 1.04687497e+09 1.04687497e+09 1.04687497e+09 1.04687497e+09
 1.04687497e+09 1.04687497e+09 1.04687498e+09 1.04687498e+09
 1.04687498e+09 1.04687498e+09 1.04687498e+09 1.04687498e+09
 1.04687498e+09 1.04687498e+09 1.04687499e+09 1.04687499e+09
 1.04687499e+09 1.04687499e+09 1.04687499e+09 1.04687499e+09
 1.04687499e+09 1.04687500e+09 1.04687500e+09 1.04687500e+09
 1.04687500e+09 1.04687500e+09 1.04687500e+09 1.04687500e+09
 1.04687500e+09 1.04687501e+09 1.04687501e+09 1.04687501e+09
 1.04687501e+09 1.04687501e+09 1.04687501e+09 1.04687501e+09
 1.04687501e+09 1.04687502e+09 1.04687502e+09 1.04687502e+09
 1.04687502e+09 1.04687502e+09 1.04687502e+09 1.04687502e+09
 1.04687502e+09 1.04687503e+09 1.04687503e+09 1.04687503e+09
 1.04687503e+09 1.04687503e+09 1.04687503e+09 1.04687503e+09
 1.04687504e+09 1.04687504e+09 1.04687504e+09 1.04687504e+09
 1.04687504e+09 1.04687504e+09 1.04687504e+09 1.04687504e+09
 1.04687505e+09 1.04687505e+09 1.04687505e+09 1.04687505e+09
 1.04687505e+09 1.04687505e+09 1.04687505e+09 1.04687505e+09
 1.04687506e+09 1.04687506e+09 1.04687506e+09 1.04687506e+09
 1.04687506e+09 1.04687506e+09 1.04687506e+09 1.04687507e+09
 1.04687507e+09 1.04687507e+09 1.04687507e+09 1.04687507e+09
 1.04687507e+09 1.04687507e+09 1.04687507e+09 1.04687508e+09
 1.04687508e+09 1.04687508e+09 1.04687508e+09 1.04687508e+09
