name =JUICE_ROI_CAL_antiJ_02
flyby =  ['2032 SEP 10 11:52:29', '2032 SEP 11 11:52:29']
Observation TW =  <SpiceCell dtype = 1, length = 0, size = 2200, card = 2, is_set = 1, adjust = 0, init = 1, base = 2004925213584, data = 2004925213632>
Cov(t) =  [1618470.67776132 1622156.46698858 1625847.77903388 1629544.61538341
 1633246.97389133 1636954.85239368 1640668.25235491 1644387.17037394
 1648111.60790084 1651841.56272668 1655577.03262458 1659318.01902327
 1663064.51967631 1666816.53231941 1670574.0583602  1674337.09551499
 1678105.64148235 1681879.69764905 1685659.26169442 1689444.33128013
 1693234.90777235 1697030.98757117 1700832.57202918 1704639.65876466
 1708452.24537833 1712270.33320262 1716093.91981951 1719923.00279353
 1723757.58343716 1727597.65929636 1731443.22789973 1735294.29054006
 1739150.84472754 1743012.8879551  1746880.42149611 1750753.44155756
 1754631.94940001 1758515.94247461 1762405.41821541 1766300.37786397
 1770200.81883635 1774106.73853164 1778018.13817262 1781935.01514058
 1785857.36679986 1789785.19435476 1793718.49515202 1797657.26652153
 1801601.50964933 1805551.22055512 1809506.40041289 1813467.04651239
 1817433.15612669 1821404.73041198 1825381.76662415 1829364.26200252
 1833352.21768568 1837345.63089596 1841344.49883919 1845348.82263665
 1849358.59947733 1853373.82653385 1857394.50491039 1861420.63044516
 1865452.20423109 1869489.22340224 1873531.68507646 1877579.59033
 1881632.93626434 1885691.71996479 1889755.94249119 1893825.60091266
 1897900.69228228 1901981.21764372 1906067.17403401 1910158.55847424
 1914255.37199215 1918357.61025034 1922465.27426607 1926578.36102351
 1930696.867491   1934820.79467033 1938950.13951425 1943084.89895985
 1947225.07399363 1951370.66153725 1955521.65849676 1959678.06584365
 1963839.88046875 1968007.09924731 1972179.72313609 1976357.74762788
 1980541.17366973 1984729.9981016  1988924.21774806 1993123.83354183
 1997328.8422927  2001539.24079519 2005755.0299679  2009976.20659073
 2014202.76742832 2018434.7133854  2022672.04121224 2026914.74764403
 2031162.83357187 2035416.29432458 2039675.13078434 2043939.33965259
 2048208.91761588 2052483.86554315 2056764.18010694 2061049.8579649
 2065340.89997306 2069637.30277524 2073939.06300053 2078246.18149219
 2082558.65486566 2086876.47972168 2091199.65689104 2095528.18154435
 2099862.05450422 2104201.27233926 2108545.83160358 2112895.73310771
 2117250.97339252 2121611.54898447 2125977.46068224 2130348.70499923
 2134725.2784345  2139107.18177515 2143494.41150732 2147886.96410298
 2152284.84033781 2156688.03522996 2161096.54954769 2165510.37973235
 2169929.52221125 2174353.97774164 2178783.74273837 2183218.81360224
 2187659.1910798  2192104.87155958 2196555.8514162  2201012.13138569
 2205473.70783055 2209940.57709944 2214412.73991812 2218890.19115794
 2223372.93153792 2227860.95737773 2232354.26498334 2236852.8550639
 2241356.72391367 2245865.86781338 2250380.28746249 2254899.97913016
 2259424.93907207 2263955.16797826 2268490.66209301 2273031.41764724
 2277577.43532174 2282128.70984673 2286685.24189701 2291247.02767597
 2295814.06337376 2300386.34965637 2304963.88270297 2309546.65867956
 2314134.67824357 2318727.93755018 2323326.43274152 2327930.16446662
 2332539.12885695 2337153.32203102 2341772.74462968 2346397.39124746
 2351027.2625199  2355662.35453947 2360302.66338585 2364948.18968677
 2369598.92951165 2374254.87891713 2378916.03852342 2383582.40437708
 2388253.97251201 2392930.74354108 2397612.71348823 2402299.87836488
 2406992.23877674 2411689.78918809 2416392.53020003 2421100.45779939
 2425813.56796059 2430531.86127793 2435255.3337163  2439983.98122821
 2444717.80440144 2449456.79917913 2454200.96149216 2458950.29192197
 2463704.78639019 2468464.44080631 2473229.25574562 2477999.22554752
 2482774.35078331 2487554.62733935 2492340.05108998 2497130.6226007
 2501926.33773702 2506727.19235247 2511533.187007   2516344.31754546
 2521160.57980082 2525981.97432769 2530808.49695048 2535640.14348186
 2540476.91447125 2545318.80413839 2550165.81302938 2555017.93693515
 2559875.17163496 2564737.51767021 2569604.97081206 2574477.52682006
 2579355.1862309  2584237.94479611 2589125.79825573 2594018.74714203
 2598916.78718719 2603819.91411197 2608728.12844443 2613641.42428974
 2618559.80217324 2623483.25779533 2628411.78684516 2633345.3898442
 2638284.06247409 2643227.80040528 2648176.60415555 2653130.46938799
 2658089.39175461 2663053.37176967 2668022.40507794 2672996.48731319
 2677975.61898636 2682959.79409309 2687949.01314223 2692943.2717485
 2697942.56551573 2702946.8949498  2707956.25564766 2712970.64319547
 2717990.05809633 2723014.49592966 2728043.95226415 2733078.42760029
 2738117.91750018 2743162.41751527 2748211.92814362 2753266.4432762
 2758325.96340953 2763390.48407731 2768460.00080274 2773534.51408025
 2778614.01942677 2783698.5123488  2788787.99333886 2793882.45789732
 2798981.9015142  2804086.32468027 2809195.72287956 2814310.09158581
 2819429.43128824 2824553.73577785 2829683.00554293 2834817.23604069
 2839956.42271823 2845100.56606254 2850249.66151504 2855403.70450709
 2860562.69552459 2865726.62999339 2870895.50332929 2876069.31601729
 2881248.06346782 2886431.74108137 2891620.3493422  2896813.88194602
 2902012.33937671 2907215.71701946 2912424.01024964 2917637.21955068
 2922855.34029289 2928078.36783686 2933306.30266571 2938539.1401351
 2943776.87559099 2949019.5095164  2954267.0372525  2959519.45413084
 2964776.76063451 2970038.9503684  2975306.02381573 2980577.97629393
 2985854.80311099 2991136.50475042 2996423.0765157  3001714.51370092
 3007010.81679008 3012311.98107288 3017618.00182969 3022928.87954517
 3028244.60949543 3033565.18694729 3038890.61238627 3044220.87933083
 3049555.9882671  3054895.93444893 3060240.71312103 3065590.32477062
 3070944.76463844 3076304.02795617 3081668.11521228 3087037.02163458
 3092410.74244192 3097789.27812413 3103172.62389632 3108560.77496466
 3113953.73182055 3119351.48790023 3124754.04369625 3130161.39440285
 3135573.53520551 3140990.46659854 3146412.18376396 3151838.68187503
 3157269.96142804 3162706.01759292 3168146.84553093 3173592.44574044
 3179042.81159601 3184497.94359751 3189957.83689529 3195422.48663156
 3200891.89330859 3206366.05206493 3211844.95803067 3217328.6117105
 3222817.00823156 3228310.14271253 3233808.01566074 3239310.62219206
 3244817.95741397 3250330.02183658 3255846.80875944 3261368.3186946
 3266894.54673949 3272425.48798331 3277961.14294109 3283501.50669946
 3289046.57433684 3294596.34637145 3300150.81787924 3305709.98392805
 3311273.84503936 3316842.39627865 3322415.63270331 3327993.55483829
 3333576.15591199 3339163.43645171 3344755.39150579 3350352.0161146
 3355953.3108091  3361559.27062756 3367169.89060038 3372785.17126228
 3378405.10764166 3384029.69475905 3389658.9331531  3395292.81784248
 3400931.34383803 3406574.51168249 3412222.31453686 3417874.75294661
 3423531.82191451 3429193.51643565 3434859.83705978 3440530.77878033
 3446206.33658314 3451886.51102234 3457571.2970822  3463260.68973947
 3468954.68955278 3474653.29149739 3480356.49054109 3486064.28724716
 3491776.67471286 3497493.65350463 3503215.21858305 3508941.36490132
 3514672.09303073 3520407.39792326 3526147.27452356 3531891.72340789
 3537640.73951976 3543394.31779541 3549152.45881619 3554915.15751732
 3560682.40882677 3566454.2133311  3572230.56406726 3578011.46162538
 3583796.90092709 3589586.87688697 3595381.3901005  3601180.43548144
 3606984.00793646 3612792.10806658 3618604.73077775 3624421.87096895
 3630243.52924681 3636069.70050965 3641900.37964885 3647735.56727678
 3653575.25637351 3659419.44755529 3665268.13570802 3671121.31571076
 3676978.98818569 3682841.14801146 3688707.7900599  3694578.91495925
 3700454.517581   3706334.59278992 3712219.14122039 3718108.15773691
 3724001.6371973  3729899.5802422  3735801.97979796 3741708.83650946
 3747620.14522983 3753535.90080562 3759456.10388814 3765380.74932387
 3771309.83195279 3777243.35243272 3783181.30560366 3789123.68629912
 3795070.49518355 3801021.72709059 3806977.37684742 3812937.44512523
 3818901.92479981 3824870.81654691 3830844.11518982 3836821.81554545
 3842803.91829646 3848790.41826009 3854781.31024729 3860776.59494772
 3866776.2671727  3872780.32172733 3878788.75930834 3884801.57472131
 3890818.76276563 3896840.32414526 3902866.25168844 3908896.54610397
 3914931.20218804 3920970.21473077 3927013.5844483  3933061.30613136
 3939113.37456467 3945169.7904718  3951230.54863816 3957295.64384317
 3963365.07681793 3969438.84234266 3975516.93519157 3981599.35610342
 3987686.09786174 3993777.1612104  3999872.54092116 4005972.23175991
 4012076.23447828 4018184.54384313 4024297.15461551 4030414.06755488
 4036535.27742331 4042660.77897712 4048790.57298371 4054924.65420048
 4061063.0173791  4067205.66329501 4073352.58468982 4079503.78234435
 4085659.25100847 4091818.98542638 4097982.98638708 4104151.24863604
 4110323.76691314 4116500.5420156  4122681.56868465 4128866.84165592
 4135056.36173499 4141250.1236589  4147448.12215918 4153650.35804979
 4159856.82403305 4166067.52092856 4172282.44346668 4178501.58637231
 4184724.95047362 4190952.53049706 4197184.32116372 4203420.32331035
 4209660.53165966 4215904.940929   4222153.55196381 4228406.35948313
 4234663.35820068 4240924.54897066 4247189.92445859 4253459.48552454
 4259733.22688167 4266011.14323787 4272293.23546212 4278579.49826416
 4284869.92634857 4291164.52059323 4297463.2757046  4303766.186384
 4310073.25351834 4316384.47181088 4322699.83595977 4329019.34686103
 4335342.9971458  4341670.7877162  4348002.71327037 4354338.76850141
 4360678.95432064 4367023.26542326 4373371.69649946 4379724.24846985
 4386080.91602676 4392441.69385761 4398806.58289231 4405175.57782045
 4411548.67332674 4417925.87035049 4424307.16149079 4430692.54769326
 4437082.02364314 4443475.58402078 4449873.22978132 4456274.95560747
 4462680.75617714 4469090.63245502 4475504.57912141 4481922.59085184
 4488344.66862064 4494770.80710577 4501201.00098047 4507635.25122876
 4514073.55041988 4520515.89954435 4526962.29327644 4533412.72628578
 4539867.19957267 4546325.7078093  4552788.24566322 4559254.81414459
 4565725.40792359 4572200.0216658  4578678.6563913  4585161.30676832
 4591647.96746057 4598138.63949807 4604633.3154223  4611131.99626996
 4617634.67670628 4624141.35139198 4630652.02137384 4637166.68131537
 4643685.32587565 4650207.95611153 4656734.5666849  4663265.15225329
 4669799.71388367 4676338.24623643 4682880.74396756 4689427.20815424
 4695977.63131227 4702532.01452567 4709090.35245242 4715652.6397462
 4722218.87750133 4728789.06037448 4735363.183018   4741941.24653658
 4748523.24558562 4755109.17481629 4761699.03534364 4768292.8218219
 4774890.5289011  4781492.15770672 4788097.70073059 4794707.15910455
 4801320.52748101 4807937.80050823 4814558.97932921 4821184.0585954
 4827813.03295417 4834445.90355906 4841082.66506064 4847723.31210539
 4854367.84585747 4861016.26096664 4867668.55207859 4874324.72036811
 4880984.75830523 4887648.66707189 4894316.44131663 4900988.07568397
 4907663.57136659 4914342.92301238 4921026.12526529 4927713.17932873
 4934404.07985007 4941098.82147269 4947797.40541084 4954499.82631136
 4961206.0788172  4967916.16415345 4974630.07476991 4981347.81189896
 4988069.37018676 4994794.74427563 5001523.93540883 5008256.93823222
 5014993.74738785 5021734.36412992 5028478.78310405 5035226.99895205
 5041979.01293915 5048734.81971077 5055494.41390857 5062257.79680879
 5069024.96084274 5075795.90729403 5082570.63080792 5089349.12602597
 5096131.39424289 5102917.43010392 5109707.22825064 5116500.78998889
 5123298.10996396 5130099.18281749 5136904.0098665  5143712.58575637
 5150524.90512891 5157340.9693123  5164160.77072091 5170984.31069039
 5177811.58386648 5184642.58489134 5191477.31511188 5198315.76917411
 5205157.94172048 5212003.83410919 5218853.44098658 5225706.75699546
 5232563.78350533 5239424.51291831 5246288.94661146 5253157.07923179
 5260028.90542286 5266904.42657308 5273783.63732995 5280666.53233753
 5287553.11299562 5294443.37395227 5301337.3098521  5308234.92210634
 5315136.20536363 5322041.15426921 5328949.77024575 5335862.04568108
 5342777.98200552 5349697.57386881 5356620.81591738 5363547.70959301
 5370478.2495462  5377412.43042413 5384350.25368013 5391291.71396546
 5398236.80592815 5405185.53103303 5412137.88393224 5419093.85927467
 5426053.45853672 5433016.67409331 5439983.50742858 5446953.9531962
 5453928.00604661 5460905.66747554 5467886.93213764 5474871.79468436
 5481860.25662307 5488852.31260944 5495847.95729598 5502847.19220171
 5509850.01198338 5516856.41129459 5523866.39166605 5530879.94546107
 5537897.07421812 5544917.77259587 5551942.03524988 5558969.86373033
 5566001.25269709 5573036.19680697 5580074.69762186 5587116.7498029
 5594162.34800817 5601211.49381129 5608264.18187472 5615320.40685783
 5622380.17034607 5629443.46469235 5636510.29148996 5643580.64540357
 5650654.52109491 5657731.92016902 5664812.83729203 5671897.26712707
 5678985.21129103 5686076.66445148 5693171.62127305 5700270.08338443
 5707372.04545472 5714477.50215008 5721586.45511104 5728698.89668133
 5735814.8285094  5742934.24526693 5750057.14162274 5757183.51923711
 5764313.37278338 5771446.69693458 5778583.4933649  5785723.75674927
 5792867.48175981 5800014.67008057 5807165.31638817 5814319.41535642
 5821476.96868126 5828637.96869828 5835802.41711133 5842970.30859997
 5850141.6378409  5857316.40654994 5864494.60940836 5871676.24109474
 5878861.30333679 5886049.79081763 5893241.69821765 5900437.02727652
 5907635.77267923 5914837.92910804 5922043.49831458 5929252.47262726
 5936464.85380568 5943680.63653801 5950899.81550975 5958122.39249245
 5965348.36217623 5972577.71924861 5979810.46549308 5987046.5956018
 5994286.10426425 6001528.99327597 6008775.25733111 6016024.89112122
 6023277.89645382 6030534.26565119 6037794.00052884 6045057.09578441
 6052323.54611296 6059593.353342   6066866.51217131 6074143.01729808
 6081422.87056184 6088706.06666454 6095992.60030553 6103282.47333641
 6110575.68046127 6117872.21638171 6125172.08296134 6132475.27251723
 6139781.78692101 6147091.62088054 6154404.76910115 6161721.23346654
 6169041.00868682 6176364.08946964 6183690.47771073 6191020.16812253
 6198353.15541502 6205689.44149597 6213029.02108018 6220371.88887998
 6227718.04681523 6235067.48719868 6242420.21195823 6249776.21581265
 6257135.49347826 6264498.04689502 6271863.87078413 6279232.95986437
 6286605.31608777 6293980.93417796 6301359.8088562  6308741.94208661
 6316127.3285953  6323515.96310603 6330907.84759499 6338302.97437149
 6345701.34541978 6353102.95547017 6360507.79925065 6367915.87875757
 6375327.18872379 6382741.72387988 6390159.48623426 6397580.4705224
 6405004.67147744 6412432.09111993 6419862.72418792 6427296.56541721
 6434733.61684041 6442173.87076415 6449617.32922911 6457063.98697776
 6464513.83875033 6471966.88659962 6479423.12527076 6486882.54950668
 6494345.16137227 6501810.95561537 6509279.92698165 6516752.07754807
 6524227.40206521 6531705.89528148 6539187.55928594 6546672.38638329
 6554160.37867066 6561651.53090325 6569145.83783407 6576643.30157236
 6584143.91687611 6591647.67850115 6599154.58856879 6606664.64183986
 6614177.83307302 6621694.16440168 6629213.6305895  6636736.22639799
 6644261.95397265 6651790.80561696 6659322.78348445 6666857.88234357
 6674396.09696066 6681937.42950134 6689481.87473696 6697029.42743677
 6704580.08977849 6712133.85653636 6719690.7224826  6727250.68980695
 6734813.75328665 6742379.90769684 6749949.15523937 6757521.48821714
 6765096.90884007 6772675.4118903  6780256.99214794 6787841.65183496
 6795429.38573651 6803020.18863573 6810614.06276663 6818211.00291787
 6825811.00387861 6833414.06789542 6841020.18975951 6848629.36426009
 6856241.59365528 6863856.87024802 6871475.19630446 6879096.56662086
 6886720.97599151 6894348.4266946  6901978.91352946 6909612.43129345
 6917248.98227679 6924888.56128186 6932531.16310915 6940176.79006086
 6947825.4369425  6955477.09855766 6963131.77722054 6970789.46523459
 6978450.16492204 6986113.87109359 6993780.57855805 7001450.28964959
 7009122.99918211 7016798.70196753 7024477.40035205 7032159.08915267
 7039843.76318452 7047531.42480577 7055222.06883659 7062915.6900953
 7070612.29095202 7078311.86371126 7086014.41075112 7093719.92689709
 7101428.40697283 7109139.8533684  7116854.26091249 7124571.624432
 7132291.94632891 7140015.22143518 7147741.44458089 7155470.61817999
 7163202.73706766 7170937.79607726 7178675.79763463 7186416.73404584
 7194160.60774466 7201907.4135717  7209657.14636579 7217409.80857262
 7225165.39503606 7232923.90059824 7240685.32771674 7248449.67123873
 7256216.92600962 7263987.09449888 7271760.17155699 7279536.15203268
 7287315.03840728 7295096.82298885 7302881.50826664 7310669.08909665
 7318459.56033316 7326252.92447728 7334049.17638832 7341848.31092393
 7349650.33059706 7357455.23027036 7365263.00480483 7373073.65672525
 7380887.18089765 7388703.57218636 7396522.83312801 7404344.95603306
 7412169.94344599 7419997.79023846 7427828.49128046 7435662.04912822
 7443498.45865683 7451337.71473962 7459179.81994467 7467024.76915042
 7474872.55723364 7482723.18677417 7490576.65265384 7498432.94975284
 7506292.08066278 7514154.03769696 7522018.82345482 7529886.4328239
 7537756.86069009 7545630.10966458 7553506.17463831 7561385.05050065
 7569266.73987448 7577151.23765421 7585038.53873263 7592928.64574436
 7600821.55358725 7608717.25715754 7616615.75910155 7624517.05173579
 7632421.13771436 7640328.01194089 7648237.66931738 7656150.11250965]
t =  [1.03174550e+09 1.03174551e+09 1.03174551e+09 1.03174551e+09
 1.03174551e+09 1.03174551e+09 1.03174551e+09 1.03174551e+09
 1.03174551e+09 1.03174551e+09 1.03174551e+09 1.03174551e+09
 1.03174551e+09 1.03174551e+09 1.03174551e+09 1.03174551e+09
 1.03174551e+09 1.03174551e+09 1.03174551e+09 1.03174551e+09
 1.03174551e+09 1.03174551e+09 1.03174551e+09 1.03174551e+09
 1.03174551e+09 1.03174551e+09 1.03174551e+09 1.03174551e+09
 1.03174551e+09 1.03174552e+09 1.03174552e+09 1.03174552e+09
 1.03174552e+09 1.03174552e+09 1.03174552e+09 1.03174552e+09
 1.03174552e+09 1.03174552e+09 1.03174552e+09 1.03174552e+09
 1.03174552e+09 1.03174552e+09 1.03174552e+09 1.03174552e+09
 1.03174552e+09 1.03174552e+09 1.03174552e+09 1.03174552e+09
 1.03174552e+09 1.03174552e+09 1.03174552e+09 1.03174552e+09
 1.03174552e+09 1.03174552e+09 1.03174552e+09 1.03174552e+09
 1.03174553e+09 1.03174553e+09 1.03174553e+09 1.03174553e+09
 1.03174553e+09 1.03174553e+09 1.03174553e+09 1.03174553e+09
 1.03174553e+09 1.03174553e+09 1.03174553e+09 1.03174553e+09
 1.03174553e+09 1.03174553e+09 1.03174553e+09 1.03174553e+09
 1.03174553e+09 1.03174553e+09 1.03174553e+09 1.03174553e+09
 1.03174553e+09 1.03174553e+09 1.03174553e+09 1.03174553e+09
 1.03174553e+09 1.03174553e+09 1.03174553e+09 1.03174553e+09
 1.03174554e+09 1.03174554e+09 1.03174554e+09 1.03174554e+09
 1.03174554e+09 1.03174554e+09 1.03174554e+09 1.03174554e+09
 1.03174554e+09 1.03174554e+09 1.03174554e+09 1.03174554e+09
 1.03174554e+09 1.03174554e+09 1.03174554e+09 1.03174554e+09
 1.03174554e+09 1.03174554e+09 1.03174554e+09 1.03174554e+09
 1.03174554e+09 1.03174554e+09 1.03174554e+09 1.03174554e+09
 1.03174554e+09 1.03174554e+09 1.03174554e+09 1.03174555e+09
 1.03174555e+09 1.03174555e+09 1.03174555e+09 1.03174555e+09
 1.03174555e+09 1.03174555e+09 1.03174555e+09 1.03174555e+09
 1.03174555e+09 1.03174555e+09 1.03174555e+09 1.03174555e+09
 1.03174555e+09 1.03174555e+09 1.03174555e+09 1.03174555e+09
 1.03174555e+09 1.03174555e+09 1.03174555e+09 1.03174555e+09
 1.03174555e+09 1.03174555e+09 1.03174555e+09 1.03174555e+09
 1.03174555e+09 1.03174555e+09 1.03174555e+09 1.03174556e+09
 1.03174556e+09 1.03174556e+09 1.03174556e+09 1.03174556e+09
 1.03174556e+09 1.03174556e+09 1.03174556e+09 1.03174556e+09
 1.03174556e+09 1.03174556e+09 1.03174556e+09 1.03174556e+09
 1.03174556e+09 1.03174556e+09 1.03174556e+09 1.03174556e+09
 1.03174556e+09 1.03174556e+09 1.03174556e+09 1.03174556e+09
 1.03174556e+09 1.03174556e+09 1.03174556e+09 1.03174556e+09
